1673941254.00
64.000000
-0.00
-0.00
-0.00
-0.00
-0.00
-0.00
-0.00
-0.00
-0.00
-0.00
0.00
0.01
0.01
-0.00
-0.03
-0.05
-0.05
0.00
0.13
0.36
0.66
1.01
1.37
1.72
2.06
2.40
2.79
3.24
3.80
4.42
5.06
5.66
6.20
6.68
7.15
7.68
8.31
9.14
10.09
11.04
11.88
12.56
13.14
13.76
14.65
15.96
17.91
20.32
22.90
25.38
27.58
29.57
31.68
34.32
37.81
42.54
48.15
54.10
59.83
64.97
69.58
74.14
79.34
85.71
93.76
103.00
112.62
121.73
129.77
136.75
143.30
150.75
157.77
166.64
177.95
191.79
206.97
220.57
228.25
225.36
208.53
176.87
132.76
80.05
23.07
-34.94
-92.44
-149.16
-205.23
-260.37
-313.74
-363.87
-409.83
-450.91
-486.50
-515.74
-537.23
-549.22
-549.96
-538.37
-514.21
-478.67
-433.88
-382.45
-327.02
-269.84
-212.63
-156.66
-102.95
-52.37
-5.90
35.58
71.43
101.35
125.50
144.38
158.69
169.15
176.37
180.75
182.57
182.07
179.51
175.23
169.65
163.18
156.15
148.81
141.30
133.69
126.02
118.33
110.69
103.16
95.80
88.68
81.83
75.25
68.95
62.95
57.25
51.86
46.78
42.03
37.59
33.45
29.61
26.07
22.81
19.83
17.11
14.67
12.48
10.54
8.83
7.35
6.07
4.97
4.05
3.26
2.62
2.08
1.65
1.30
1.03
0.82
0.66
0.55
0.48
0.44
0.44
0.45
0.49
0.53
0.59
0.66
0.72
0.79
0.85
0.92
0.98
1.05
1.12
1.20
1.29
1.40
1.52
1.67
1.83
2.01
2.23
2.50
2.81
3.16
3.52
3.85
4.14
4.39
4.63
4.92
5.32
5.86
6.53
7.28
8.04
8.77
9.46
10.15
10.92
11.85
13.00
14.30
15.67
16.99
18.17
19.20
20.18
21.32
22.81
24.74
26.98
29.26
31.21
32.49
32.94
32.60
31.69
30.40
28.74
26.23
22.23
16.00
7.17
-4.03
-16.68
-29.32
-40.49
-49.13
-55.16
-59.11
-61.95
-64.52
-67.06
-69.12
-69.81
-68.56
-65.38
-61.45
-58.42
-57.93
-61.17
-68.76
-80.83
-96.77
-114.78
-130.23
-138.78
-135.86
-119.13
-90.21
-54.67
-20.00
7.45
24.85
33.45
36.81
38.48
40.21
41.86
42.60
42.12
41.29
41.54
43.96
47.99
52.00
54.06
52.89
48.71
42.97
37.80
34.89
35.08
37.38
39.89
40.76
39.20
35.86
32.29
30.53
31.99
37.39
45.52
54.41
62.15
67.70
71.16
73.03
74.56
77.41
84.14
96.25
113.55
133.44
150.66
158.57
150.89
125.50
81.92
30.12
-17.42
-51.55
-69.61
-75.11
-74.57
-75.46
-81.28
-93.05
-110.30
-133.41
-162.57
-195.98
-228.82
-249.28
-249.51
-227.31
-187.74
-140.68
-97.66
-67.00
-51.10
-46.85
-48.53
-51.91
-54.86
-57.14
-58.89
-59.99
-59.57
-56.32
-49.39
-39.18
-27.68
-17.17
-8.83
-2.63
2.40
7.82
15.10
25.24
38.00
51.69
64.25
74.50
82.21
88.27
94.41
103.01
117.12
139.25
170.90
207.90
246.16
280.85
307.20
321.31
320.84
305.89
278.26
241.05
198.22
154.48
113.68
78.07
47.99
18.84
-11.51
-42.54
-71.20
-93.82
-107.89
-113.71
-113.69
-110.55
-105.94
-99.79
-91.58
-81.29
-69.97
-58.96
-49.52
-42.35
-37.17
-32.99
-28.29
-21.84
-13.45
-3.90
5.59
13.81
19.77
23.22
24.54
24.61
24.67
25.48
27.25
29.69
32.23
34.00
34.60
34.26
33.70
35.07
39.45
47.31
58.26
71.12
83.89
94.88
103.24
108.64
113.47
118.92
125.76
133.77
141.43
145.92
144.74
136.24
118.69
93.90
61.85
27.19
-7.79
-34.05
-45.38
-39.52
-18.92
-6.01
-4.86
-14.28
-32.38
-49.91
-64.67
-78.65
-94.93
-115.91
-146.19
-184.48
-227.82
-271.46
-311.45
-347.15
-380.60
-415.01
-453.86
-504.93
-569.62
-643.83
-717.05
-775.88
-809.79
-813.90
-790.22
-714.01
-584.61
-421.48
-256.20
-113.14
-0.07
86.56
153.61
206.10
246.48
269.73
277.37
275.30
272.46
277.35
294.53
325.17
368.43
422.70
482.23
538.35
583.80
612.75
621.19
607.49
575.56
534.85
496.80
466.96
445.27
426.51
403.88
372.86
331.77
283.76
234.54
188.60
145.34
101.91
55.25
5.30
-44.72
-92.89
-137.46
-177.61
-214.11
-249.54
-286.02
-325.34
-367.58
-411.70
-459.82
-512.53
-566.87
-616.46
-653.64
-671.15
-666.51
-641.41
-580.68
-485.21
-369.67
-254.60
-155.44
-85.43
-37.33
-2.21
27.94
59.92
96.50
138.33
185.90
239.73
299.72
360.84
414.39
453.07
474.28
478.23
468.87
451.51
429.73
403.35
369.89
325.65
270.15
207.20
142.66
83.52
35.39
0.50
-22.93
-38.19
-48.96
-56.56
-61.42
-65.01
-69.88
-79.13
-95.35
-120.07
-152.81
-190.87
-225.90
-250.16
-257.51
-245.52
-216.94
-178.90
-141.02
-111.35
-93.45
-85.65
-83.42
-81.91
-78.49
-73.46
-67.45
-60.66
-51.91
-39.08
-20.45
3.90
32.11
61.36
86.36
105.22
117.86
125.48
129.74
131.75
132.07
130.56
126.92
121.20
114.37
107.46
101.26
96.09
91.46
87.00
82.17
76.84
71.42
66.95
63.98
62.29
62.49
62.41
61.00
57.92
53.74
49.63
47.23
48.02
53.04
62.52
73.16
82.42
85.52
77.61
56.48
24.53
-11.71
-44.37
-67.22
-78.35
-80.21
-77.63
-75.06
-75.33
-79.48
-87.66
-99.28
-112.56
-122.74
-124.90
-115.16
-92.51
-59.54
-21.56
16.73
50.81
76.95
92.34
94.71
83.22
59.91
30.03
2.67
-14.33
-17.76
-10.88
0.12
8.22
8.82
1.05
-12.66
-28.53
-43.91
-56.60
-67.32
-77.01
-86.40
-95.66
-104.58
-113.35
-122.15
-130.64
-136.83
-137.14
-127.18
-104.50
-70.47
-30.61
7.23
36.06
52.36
57.14
54.37
48.99
44.32
41.38
39.62
38.09
36.41
34.77
33.52
32.63
31.88
31.04
29.86
28.51
27.19
26.17
25.34
24.32
22.54
19.66
15.93
12.52
11.68
15.61
24.91
37.30
47.34
47.87
33.18
1.96
-40.81
-84.65
-117.13
-128.56
-115.50
-81.52
-35.71
10.50
46.60
65.07
62.24
38.43
-2.22
-52.02
-100.53
-136.74
-152.17
-143.38
-113.44
-70.76
-25.82
12.39
39.40
55.19
63.43
68.77
74.88
83.80
95.27
109.37
125.74
143.12
159.04
169.98
172.25
163.42
143.06
113.40
78.90
44.76
15.68
-5.34
-17.54
-22.32
-22.21
-19.96
-17.42
-15.02
-12.34
-8.80
-4.28
0.65
4.98
8.02
9.81
10.77
11.79
13.42
15.50
17.30
17.84
16.13
11.78
4.87
-4.07
-14.16
-24.64
-34.97
-44.98
-54.13
-62.83
-71.14
-78.96
-85.99
-91.76
-95.84
-97.91
-98.02
-96.52
-94.78
-92.60
-89.81
-85.86
-79.84
-70.75
-57.85
-41.31
-22.15
-1.70
17.48
33.45
45.30
53.14
57.79
60.01
60.08
57.63
51.77
41.68
26.98
7.74
-15.65
-42.25
-69.52
-93.99
-110.88
-115.71
-106.47
-85.05
-57.13
-30.21
-10.57
-1.00
-0.45
-5.40
-12.18
-18.76
-24.92
-31.04
-37.07
-42.03
-44.42
-43.34
-38.94
-32.11
-23.88
-14.85
-4.70
7.45
22.31
39.79
58.63
76.32
90.95
101.35
107.51
110.51
111.94
113.04
114.24
114.96
114.83
112.85
108.99
104.04
99.21
95.75
94.73
96.88
102.07
108.85
113.95
112.90
101.60
78.47
45.92
9.93
-22.15
-44.66
-55.65
-57.22
-53.58
-48.64
-44.40
-40.74
-36.68
-31.79
-26.75
-22.77
-20.62
-19.88
-19.13
-16.88
-12.06
-4.80
3.66
11.51
17.20
19.98
20.10
18.57
16.26
13.73
10.79
6.58
0.15
-8.98
-20.54
-33.40
-45.45
-55.73
-63.62
-69.27
-73.47
-77.10
-80.55
-83.54
-85.89
-86.01
-83.55
-78.89
-73.34
-68.68
-66.36
-66.89
-69.78
-73.67
-77.09
-79.24
-80.08
-80.26
-80.70
-82.10
-84.87
-89.17
-94.53
-99.42
-101.06
-95.45
-78.95
-50.32
-12.06
29.77
67.64
95.55
111.20
116.20
114.66
110.72
106.65
102.65
98.14
93.21
89.13
87.56
89.51
94.50
100.68
105.67
107.33
105.21
100.58
95.58
91.74
89.54
88.41
87.21
84.88
80.33
73.01
62.61
48.66
30.37
7.61
-18.55
-46.00
-72.51
-97.01
-118.99
-138.26
-151.96
-157.61
-153.13
-137.71
-112.71
-79.44
-44.44
-15.93
0.54
4.77
0.52
-7.35
-15.39
-22.37
-28.57
-35.13
-42.23
-48.99
-54.20
-57.20
-58.15
-57.90
-57.50
-57.76
-59.43
-62.24
-65.08
-66.37
-64.79
-59.20
-49.15
-34.75
-16.69
3.75
25.40
47.52
68.25
87.18
104.35
119.81
133.32
144.20
151.36
154.05
152.19
146.59
138.99
131.22
124.74
120.55
119.22
120.87
124.71
128.52
128.37
119.91
99.95
68.53
29.80
-9.19
-41.19
-61.73
-70.51
-70.68
-66.46
-61.06
-55.58
-49.59
-42.51
-34.74
-27.70
-22.90
-20.81
-20.46
-19.96
-17.45
-12.09
-4.56
3.22
8.87
10.48
7.50
0.80
-7.87
-16.64
-24.47
-31.49
-38.77
-47.24
-57.88
-70.37
-83.24
-94.42
-102.15
-105.89
-106.34
-105.13
-103.95
-104.04
-105.83
-109.40
-114.94
-121.56
-127.73
-130.61
-126.52
-112.47
-87.89
-55.42
-20.27
11.69
36.78
53.94
65.11
73.37
81.54
90.96
101.61
113.07
124.95
138.35
153.85
170.36
184.07
189.46
181.35
157.68
121.40
80.00
42.43
15.58
1.81
-1.82
-1.62
-3.82
-12.23
-26.72
-43.72
-58.68
-68.80
-73.73
-76.42
-80.14
-86.46
-94.80
-103.18
-110.56
-117.80
-126.92
-138.07
-148.39
-151.98
-142.93
-119.18
-84.54
-47.38
-16.70
2.25
10.24
12.20
14.14
20.47
32.24
48.06
65.60
82.71
98.09
111.59
123.09
132.50
139.70
144.55
147.66
150.44
154.23
159.66
164.54
164.60
155.33
134.29
103.03
67.13
34.15
10.32
-1.91
-4.49
-2.25
0.09
-0.30
-3.94
-9.92
-17.33
-26.01
-36.37
-48.31
-61.53
-74.76
-86.37
-94.92
-99.81
-101.47
-101.07
-100.41
-100.57
-102.26
-105.36
-109.05
-112.23
-113.80
-113.24
-111.00
-107.37
-103.04
-98.75
-94.64
-90.19
-84.60
-76.93
-67.01
-55.44
-43.58
-33.18
-25.78
-22.32
-23.16
-28.34
-37.29
-48.55
-59.07
-64.47
-60.66
-45.57
-20.91
8.05
34.38
52.59
60.58
60.30
56.20
52.70
52.37
55.41
60.64
65.78
70.95
76.64
83.05
89.67
95.04
97.78
96.91
92.70
86.30
79.55
73.89
70.03
67.73
66.06
64.15
61.43
58.03
54.43
51.30
48.93
47.11
46.06
44.28
41.09
36.36
30.65
24.53
18.69
13.57
9.46
6.39
4.47
3.93
4.86
7.72
12.43
19.05
27.57
37.58
47.98
56.54
60.66
57.03
45.99
29.38
10.35
-7.83
-23.03
-34.62
-43.15
-49.22
-52.86
-53.45
-50.77
-45.29
-38.22
-31.10
-24.97
-20.08
-15.98
-11.97
-7.47
-2.75
1.93
6.33
10.19
13.60
16.52
18.54
19.20
17.90
14.04
7.49
-1.27
-11.34
-21.59
-30.84
-39.00
-46.39
-53.54
-60.91
-68.34
-75.05
-79.97
-82.36
-82.01
-79.74
-76.82
-74.53
-73.90
-75.78
-80.19
-86.83
-94.33
-99.82
-99.47
-89.76
-69.39
-40.56
-8.54
20.23
40.72
51.24
53.45
50.80
46.47
42.02
37.46
32.42
27.26
23.10
21.19
21.84
23.97
25.59
24.96
21.23
15.33
9.35
5.52
5.15
8.13
13.20
18.72
23.54
27.63
32.17
38.88
49.26
64.08
83.28
105.78
128.55
147.55
157.64
154.57
136.94
107.46
72.84
40.08
15.08
0.15
-6.20
-7.72
-7.98
-8.78
-10.02
-11.03
-11.54
-12.47
-15.35
-21.23
-30.03
-40.47
-50.81
-58.85
-64.57
-68.67
-72.32
-76.59
-81.85
-87.59
-92.60
-95.46
-95.17
-92.47
-87.20
-79.97
-71.42
-61.73
-50.55
-37.26
-21.40
-3.21
16.65
35.68
51.46
62.01
66.79
66.40
62.24
56.15
49.53
42.93
36.18
28.64
19.77
9.39
-1.79
-12.64
-22.32
-30.62
-38.32
-46.75
-57.19
-69.19
-83.69
-100.91
-120.31
-140.13
-156.99
-166.32
-163.75
-147.35
-119.18
-85.52
-54.20
-31.67
-20.53
-19.10
-23.02
-27.71
-30.40
-30.48
-28.36
-24.03
-16.66
-5.13
11.10
31.14
52.92
73.16
89.70
101.42
108.70
112.76
114.94
116.18
116.68
116.01
113.60
109.24
103.09
96.06
89.21
83.37
78.81
75.23
71.90
67.96
63.69
58.16
51.34
43.55
35.16
26.41
17.44
8.40
-0.47
-8.77
-16.16
-22.12
-26.37
-28.82
-29.66
-29.14
-27.46
-24.72
-21.02
-16.71
-12.15
-7.99
-4.85
-3.37
-3.66
-5.21
-6.95
-7.78
-7.03
-4.59
-1.05
2.77
5.75
7.39
8.22
9.53
12.64
18.27
26.12
34.96
43.47
49.82
53.09
53.79
53.41
53.80
56.71
63.57
75.11
90.73
106.78
117.51
117.03
101.40
70.34
27.78
-19.40
-64.31
-96.54
-110.77
-108.84
-96.72
-80.44
-63.52
-46.95
-30.61
-14.74
-0.20
11.16
18.00
21.01
22.34
24.28
28.09
33.62
39.44
44.15
45.92
43.35
36.80
27.69
17.49
7.06
-3.66
-15.31
-28.53
-40.81
-52.26
-62.43
-70.52
-75.91
-78.60
-79.22
-78.68
-77.63
-76.40
-75.34
-73.97
-71.78
-68.74
-65.33
-62.41
-60.78
-60.64
-61.53
-62.97
-64.23
-64.69
-64.35
-63.56
-62.81
-62.61
-63.59
-66.69
-72.92
-81.88
-90.86
-95.06
-89.16
-69.91
-38.37
-0.20
36.26
63.21
76.81
78.01
71.22
61.69
53.11
46.90
43.30
42.74
46.12
53.72
64.10
73.16
75.60
67.69
49.53
25.97
4.75
-7.05
-6.35
5.05
21.93
38.64
51.54
59.81
64.64
67.58
69.28
69.49
67.79
64.07
58.78
52.63
45.90
38.50
29.82
19.05
5.79
-9.56
-25.85
-41.25
-53.87
-62.31
-65.81
-64.49
-59.03
-50.40
-39.40
-26.74
-12.86
2.24
17.45
31.97
45.05
56.17
65.10
71.81
76.20
78.29
77.72
73.98
66.83
56.58
44.17
31.01
18.58
7.72
-1.26
-9.00
-16.62
-25.05
-34.65
-44.98
-55.07
-62.89
-68.64
-72.82
-76.37
-80.28
-85.26
-91.72
-99.94
-109.74
-119.84
-127.54
-128.61
-119.08
-97.28
-65.35
-29.12
4.02
28.06
40.70
43.48
40.52
35.81
31.46
27.51
23.10
17.79
12.11
7.50
4.85
4.06
3.93
2.94
-0.21
-5.72
-12.73
-19.87
-25.87
-30.21
-33.19
-35.79
-39.08
-43.88
-50.25
-57.48
-64.44
-70.11
-73.86
-75.51
-75.31
-73.57
-70.71
-67.00
-62.25
-56.27
-49.10
-41.10
-32.77
-24.64
-16.88
-9.50
-2.11
5.91
15.12
25.89
38.13
51.49
64.53
76.80
87.71
96.78
103.68
108.22
110.29
109.80
106.92
101.90
95.40
88.12
80.82
74.18
68.56
64.43
60.92
57.28
52.87
47.66
42.08
37.04
33.45
31.80
31.77
32.22
31.82
29.55
25.36
20.25
15.92
14.09
15.50
19.51
24.10
26.96
26.51
22.87
17.73
13.62
12.69
15.64
21.59
28.77
35.61
40.94
43.34
40.84
31.45
14.68
-6.81
-26.93
-38.38
-36.08
-20.11
3.87
27.39
43.60
50.58
51.53
51.79
54.57
58.39
58.02
47.92
26.28
-3.45
-33.86
-56.87
-67.07
-64.00
-52.00
-37.76
-27.59
-25.01
-30.06
-39.93
-50.61
-58.74
-62.72
-62.73
-59.85
-55.78
-51.21
-45.82
-39.05
-30.85
-22.19
-14.84
-10.44
-9.90
-13.39
-20.06
-28.71
-38.44
-49.10
-61.35
-75.89
-91.63
-106.01
-114.44
-112.05
-96.38
-69.23
-36.46
-5.88
16.06
26.71
27.53
22.58
16.04
10.32
5.87
2.31
-0.40
-1.54
-0.17
3.84
9.47
14.85
18.23
18.71
17.02
14.84
13.90
15.05
17.72
20.33
21.17
19.39
15.76
12.46
12.05
16.21
24.72
35.42
45.04
50.68
50.83
46.06
38.66
31.21
25.94
24.25
26.90
34.14
45.09
56.39
62.47
57.30
37.96
7.85
-22.97
-41.30
-37.55
-11.70
25.51
57.97
72.57
65.86
44.62
20.13
0.82
-12.06
-22.78
-35.66
-49.31
-56.77
-50.82
-30.26
-3.31
16.46
17.76
-1.88
-35.16
-68.45
-89.51
-93.07
-81.40
-61.03
-37.67
-13.90
11.64
38.16
63.39
83.65
95.48
100.78
104.79
114.35
134.55
165.99
200.87
228.96
240.72
230.30
197.56
149.22
96.85
50.74
20.84
6.79
-0.67
-8.60
-21.62
-42.45
-69.88
-98.93
-122.77
-135.34
-134.91
-124.43
-111.49
-107.05
-122.74
-162.59
-219.90
-280.17
-327.95
-354.63
-360.94
-354.98
-332.16
-294.12
-244.99
-188.41
-126.51
-62.13
-1.44
47.93
81.13
98.14
99.76
91.71
80.07
69.10
61.43
58.47
61.41
71.60
89.66
114.32
140.16
166.65
194.32
222.93
249.82
269.35
274.30
258.35
217.37
153.88
77.66
1.05
-66.03
-119.37
-160.20
-192.40
-211.41
-213.16
-196.89
-165.95
-126.59
-85.08
-46.50
-14.39
9.69
23.74
27.90
22.20
7.56
-14.28
-40.45
-66.95
-89.03
-96.30
-82.91
-51.59
-12.50
22.45
45.13
53.69
51.48
44.09
36.40
30.13
24.64
18.97
13.32
8.97
7.25
8.36
11.39
14.86
16.73
16.23
14.48
14.28
18.95
30.01
45.67
60.57
67.69
61.10
37.58
2.01
-36.58
-69.21
-89.89
-96.43
-88.95
-68.21
-35.57
6.51
53.75
99.88
138.28
164.10
175.32
172.24
156.48
130.13
96.49
60.43
27.89
4.49
-6.39
-4.74
5.70
19.59
31.64
38.11
37.79
31.50
21.40
9.92
-0.97
-10.13
-17.24
-22.69
-26.76
-29.91
-33.05
-37.34
-43.74
-51.37
-57.08
-56.43
-46.31
-26.97
-3.13
17.90
29.66
29.16
18.80
5.51
-3.50
-4.59
1.75
12.07
22.12
31.26
40.09
49.81
60.39
70.27
76.21
75.58
66.83
50.88
31.09
11.51
-4.64
-17.25
-29.30
-46.78
-71.01
-102.04
-137.82
-175.47
-213.27
-250.66
-287.73
-321.41
-346.08
-353.02
-334.67
-288.63
-219.30
-135.90
-47.78
38.71
124.82
203.01
261.90
292.75
294.25
271.75
234.46
197.12
161.98
129.12
97.30
67.69
44.28
32.72
38.86
65.26
108.56
158.60
203.35
231.54
237.60
222.57
192.21
154.24
115.80
82.14
55.74
38.22
29.30
27.57
30.29
33.41
32.04
22.05
1.82
-27.16
-59.58
-88.32
-106.18
-107.77
-91.49
-60.59
-23.07
9.85
26.89
20.85
-8.88
-55.83
-108.76
-155.99
-189.45
-206.92
-211.51
-209.06
-204.84
-201.38
-197.94
-191.89
-180.74
-163.82
-142.96
-121.88
-104.45
-92.80
-86.69
-84.07
-82.55
-80.90
-79.63
-80.09
-83.25
-88.60
-94.32
-98.02
-97.89
-92.95
-82.51
-65.32
-40.06
-7.07
30.92
68.36
97.98
113.56
112.85
98.41
76.34
52.87
31.12
10.46
-12.13
-39.82
-73.59
-111.36
-149.33
-183.48
-211.77
-235.34
-255.63
-272.59
-284.77
-289.72
-285.06
-270.51
-246.93
-217.63
-189.37
-165.92
-146.19
-126.94
-104.57
-76.25
-42.84
-4.95
34.61
67.66
91.45
110.11
128.99
153.08
187.61
233.74
293.22
361.66
421.02
457.44
467.09
452.47
422.94
395.19
382.71
397.59
440.39
491.54
536.05
570.74
597.27
620.75
650.87
646.78
582.89
521.33
480.17
436.98
385.44
324.30
230.52
106.48
-26.90
-138.03
-209.11
-250.78
-275.26
-286.85
-287.92
-279.78
-260.57
-232.88
-199.75
-167.06
-146.86
-141.72
-145.01
-150.51
-154.60
-154.07
-149.85
-144.82
-143.52
-153.69
-175.78
-205.62
-233.33
-252.99
-260.82
-243.14
-195.31
-125.83
-52.15
15.01
71.95
113.73
145.60
171.21
191.29
202.94
199.06
177.47
146.14
112.56
80.34
52.43
29.73
11.84
-4.18
-26.81
-61.12
-98.03
-131.46
-161.20
-186.67
-208.71
-228.47
-248.09
-276.61
-320.66
-370.42
-421.16
-474.89
-530.12
-582.62
-625.10
-602.74
-490.63
-370.84
-274.65
-188.15
-109.33
-35.00
37.47
108.02
172.30
215.28
222.54
200.26
156.62
98.26
34.14
-29.54
-90.67
-148.64
-190.02
-201.55
-170.97
-107.68
-34.22
31.03
77.94
104.26
114.08
110.82
96.23
77.31
57.22
35.93
14.81
-3.70
-17.49
-24.90
-27.27
-28.71
-30.48
-33.98
-40.13
-48.06
-55.37
-59.76
-59.28
-53.60
-44.65
-33.90
-22.47
-9.63
2.58
15.55
31.66
53.34
82.09
117.41
157.88
202.22
249.29
297.44
344.44
386.18
417.96
436.22
440.33
433.77
422.93
413.93
408.91
405.02
395.27
372.91
335.50
286.62
233.47
182.41
135.25
89.28
41.17
-9.23
-57.01
-94.62
-117.10
-126.65
-132.83
-147.85
-179.81
-227.85
-282.12
-327.86
-351.68
-346.20
-311.35
-252.60
-177.46
-92.95
-4.69
82.38
162.83
230.52
279.85
307.81
315.94
310.28
299.13
289.61
284.93
283.90
282.77
278.29
269.78
259.16
249.13
241.16
234.60
227.47
218.10
206.40
193.85
182.47
173.57
167.03
161.73
156.43
150.60
144.58
139.33
135.77
134.35
134.83
136.32
137.66
137.73
135.68
131.10
123.93
114.35
102.64
89.10
74.10
58.17
42.09
26.85
13.53
3.05
-4.05
-7.75
-8.63
-7.75
-6.45
-6.13
-8.07
-13.22
-22.23
-35.51
-53.25
-75.63
-102.79
-134.73
-171.06
-210.86
-252.50
-294.06
-333.95
-371.57
-407.54
-443.05
-478.74
-513.61
-544.89
-568.71
-581.70
-582.09
-570.15
-547.95
-518.63
-485.98
-454.25
-427.92
-410.90
-405.25
-410.00
-420.83
-431.35
-435.20
-428.43
-410.66
-384.83
-355.53
-327.11
-302.09
-280.44
-260.23
-238.67
-213.46
-183.65
-149.72
-112.99
-74.70
-35.22
6.01
49.83
96.37
144.29
190.79
232.43
266.58
292.50
311.68
327.26
342.73
360.70
382.21
406.77
433.11
459.87
486.01
510.66
532.53
549.47
558.56
556.82
542.31
515.12
477.71
434.32
389.67
347.49
309.39
274.72
241.39
207.02
170.25
131.17
91.06
51.68
14.45
-20.22
-52.92
-84.72
-116.85
-150.17
-184.96
-220.84
-256.60
-290.13
-318.43
-338.22
-346.74
-343.01
-328.44
-306.66
-282.30
-259.33
-239.73
-223.14
-207.77
-191.76
-174.51
-157.01
-141.29
-129.37
-122.22
-119.45
-119.67
-121.41
-123.78
-126.76
-130.59
-135.15
-139.41
-141.50
-139.47
-132.40
-121.07
-107.80
-95.59
-86.80
-82.15
-80.59
-79.99
-78.24
-74.22
-68.04
-60.69
-53.36
-46.90
-41.45
-36.74
-32.30
-27.83
-23.30
-18.90
-14.87
-11.47
-8.83
-7.02
-6.09
-6.06
-6.97
-8.73
-11.09
-13.52
-15.34
-15.76
-14.14
-10.28
-4.47
2.51
9.67
16.09
21.16
24.70
26.98
28.57
30.14
32.24
35.18
38.82
42.74
46.32
49.08
50.84
51.84
52.51
53.35
54.52
55.89
57.07
57.70
57.77
57.72
58.29
60.17
63.55
67.89
72.08
74.91
75.61
74.02
70.48
65.51
59.60
53.22
47.13
42.38
40.02
40.73
44.36
49.94
56.24
62.29
67.59
71.86
74.53
74.61
71.40
65.26
58.02
52.39
50.47
52.50
56.76
60.60
62.22
61.64
60.13
58.72
56.65
51.52
40.79
23.96
3.66
-15.21
-27.91
-32.28
-29.65
-23.65
-18.08
-14.83
-13.40
-12.01
-9.21
-4.98
-0.49
2.94
5.14
7.49
12.06
20.14
30.71
40.41
44.87
40.90
28.35
10.54
-7.35
-20.71
-27.61
-29.42
-29.45
-30.50
-33.06
-35.22
-34.32
-29.18
-21.55
-15.49
-15.16
-22.72
-37.30
-55.85
-74.92
-92.28
-107.33
-120.39
-131.57
-140.50
-146.72
-150.60
-153.47
-156.91
-161.57
-166.57
-169.91
-169.75
-165.65
-158.67
-150.80
-143.54
-137.07
-130.39
-122.42
-112.96
-103.18
-94.99
-89.91
-88.08
-87.98
-87.48
-84.93
-80.39
-75.59
-72.87
-73.58
-77.17
-81.30
-83.14
-81.12
-75.56
-68.21
-60.68
-53.14
-44.05
-31.22
-13.53
8.04
30.54
50.34
64.93
73.92
78.92
82.46
86.82
93.10
101.12
109.81
117.91
124.35
128.63
130.66
130.63
128.70
124.87
119.00
111.03
101.40
91.18
81.97
75.34
72.27
72.67
75.47
79.12
82.16
83.73
83.57
81.61
77.73
71.64
63.12
52.55
41.00
30.03
21.13
15.10
11.82
10.36
9.49
8.08
5.31
0.63
-6.43
-16.02
-27.62
-39.49
-48.70
-51.68
-45.73
-30.21
-7.34
18.34
41.43
57.47
64.20
61.72
51.81
36.79
18.79
-0.32
-18.60
-33.69
-43.21
-45.35
-39.69
-27.65
-12.02
3.93
17.65
28.04
35.66
42.14
49.28
58.38
69.79
83.06
97.28
111.40
124.19
134.05
138.98
137.02
127.22
110.62
90.54
71.61
57.93
51.22
50.13
51.06
50.34
46.17
39.49
33.09
29.70
30.23
33.36
36.46
37.16
34.57
29.41
23.08
16.52
9.52
0.91
-10.56
-25.19
-41.85
-58.28
-71.93
-81.12
-85.65
-86.85
-86.94
-87.97
-90.89
-95.21
-99.27
-101.18
-99.78
-95.20
-88.74
-82.15
-76.73
-72.71
-69.36
-65.66
-60.89
-55.09
-48.82
-42.70
-36.96
-31.40
-25.68
-19.71
-13.82
-8.50
-3.98
-0.14
3.41
6.91
10.17
12.52
13.30
12.31
10.16
8.07
7.50
9.48
14.23
21.10
28.80
35.82
40.76
42.72
41.45
37.32
31.23
24.36
17.94
13.00
10.18
9.63
11.09
13.90
17.30
20.66
23.69
26.41
29.11
32.06
35.25
38.35
40.75
41.77
40.93
38.12
33.66
28.21
22.63
17.69
13.92
11.42
9.94
8.94
7.86
6.40
4.59
2.81
1.52
1.02
1.21
1.65
1.74
0.98
-0.73
-3.12
-5.76
-8.28
-10.62
-13.05
-16.03
-19.83
-24.42
-29.33
-33.88
-37.31
-39.00
-38.58
-35.98
-31.38
-25.12
-17.71
-9.77
-2.01
4.87
10.25
13.61
14.65
13.40
10.30
6.20
2.22
-0.56
-1.44
-0.28
2.44
5.94
9.33
11.99
13.62
14.30
14.28
13.95
13.60
13.45
13.64
14.10
14.64
14.91
14.45
12.83
9.76
5.25
-0.36
-6.45
-12.40
-17.71
-22.12
-25.56
-27.91
-28.79
-27.73
-24.30
-18.48
-10.83
-2.37
5.74
12.57
17.63
20.84
22.33
22.32
21.01
18.62
15.57
12.34
9.55
7.65
6.89
7.22
8.36
9.88
11.26
12.05
11.85
10.43
7.73
3.95
-0.61
-5.52
-10.34
-14.71
-18.36
-21.21
-23.38
-25.17
-27.05
-29.45
-32.64
-36.58
-40.94
-45.17
-48.64
-50.80
-51.26
-49.79
-46.34
-41.08
-34.34
-26.57
-18.33
-10.12
-2.35
4.72
10.97
16.40
21.16
25.45
29.58
33.76
38.16
42.76
47.40
51.89
55.98
59.53
62.45
64.81
66.78
68.62
70.52
72.56
74.69
76.82
78.90
81.09
83.65
86.76
90.30
93.80
96.61
98.24
98.65
98.47
98.84
101.06
106.12
114.39
125.32
137.47
148.69
156.50
158.79
154.34
143.26
126.99
107.74
87.72
68.53
50.81
34.55
19.43
5.22
-8.25
-21.29
-34.56
-49.18
-66.32
-86.91
-111.34
-139.60
-171.42
-206.11
-242.23
-277.22
-307.70
-330.34
-342.97
-345.34
-338.92
-325.99
-308.53
-287.64
-263.82
-237.65
-210.28
-183.33
-158.06
-134.66
-112.13
-88.85
-63.77
-37.21
-10.72
13.57
33.92
49.80
61.86
71.58
80.63
90.15
100.41
110.51
118.47
121.90
118.86
109.11
94.81
80.30
70.78
70.36
80.43
99.18
122.61
146.27
167.06
183.95
197.46
208.58
217.76
224.73
228.91
230.19
228.95
225.71
220.34
211.44
196.39
172.45
137.94
93.48
42.10
-11.49
-62.26
-106.09
-140.36
-163.91
-176.70
-179.56
-174.14
-162.86
-148.76
-134.80
-123.06
-114.22
-107.47
-101.24
-94.19
-85.91
-77.09
-69.01
-62.69
-58.23
-54.83
-51.24
-46.44
-40.26
-33.35
-26.77
-21.38
-17.42
-14.56
-12.33
-10.58
-9.64
-10.05
-12.02
-15.12
-18.25
-20.16
-19.98
-17.78
-14.44
-11.38
-9.90
-10.78
-13.97
-18.76
-23.95
-28.25
-30.61
-30.41
-27.71
-23.09
-17.46
-11.64
-6.14
-1.01
3.92
8.81
13.56
17.73
20.70
21.96
21.28
18.88
15.34
11.38
7.74
4.93
3.07
1.94
1.18
0.45
-0.35
-1.04
-1.29
-0.79
0.50
2.37
4.41
6.24
7.60
8.37
8.57
8.21
7.28
5.78
3.84
1.62
-0.63
-2.80
-4.93
-7.21
-9.76
-12.43
-14.66
-15.57
-14.29
-10.42
-4.16
3.73
12.29
20.67
28.46
35.48
41.63
46.59
49.82
50.77
49.23
45.61
40.75
35.78
31.58
28.58
26.67
25.40
24.26
22.91
21.27
19.45
17.65
16.01
14.50
13.10
11.67
10.06
8.11
5.59
2.36
-1.61
-6.17
-10.94
-15.40
-19.08
-21.70
-23.31
-24.38
-25.51
-27.33
-30.10
-33.54
-36.87
-38.98
-38.80
-35.58
-29.21
-20.06
-9.00
2.90
14.60
25.20
33.99
40.55
44.75
46.61
46.44
44.69
41.99
39.05
36.51
34.80
33.99
33.87
33.93
33.66
32.67
30.89
28.52
25.93
23.47
21.39
19.69
18.13
16.28
13.62
9.77
4.73
-1.16
-7.19
-12.56
-16.61
-19.05
-20.07
-20.31
-20.83
-22.79
-27.18
-34.42
-43.95
-54.21
-62.91
-67.70
-66.92
-60.19
-48.36
-33.12
-16.24
0.89
17.43
32.90
46.93
59.01
68.54
74.95
77.75
76.66
71.67
63.15
52.08
39.85
28.01
17.79
9.72
3.63
-1.04
-4.75
-7.52
-9.05
-9.25
-8.57
-8.14
-9.22
-12.50
-17.56
-23.16
-27.96
-31.22
-33.30
-35.36
-38.68
-44.04
-51.42
-60.17
-69.23
-77.38
-83.15
-84.81
-80.58
-69.26
-51.28
-29.26
-7.81
7.76
13.46
8.43
-4.63
-20.46
-33.63
-40.69
-41.34
-37.88
-33.23
-29.10
-25.15
-19.68
-11.25
-0.06
11.95
22.34
29.72
34.78
39.51
45.61
52.72
58.07
57.66
48.51
30.26
5.58
-21.03
-45.10
-63.54
-75.10
-79.77
-78.16
-71.19
-60.37
-48.00
-36.82
-29.16
-25.97
-26.32
-28.02
-28.70
-26.69
-21.56
-13.77
-4.54
4.31
10.58
12.15
7.95
-1.22
-12.53
-22.12
-26.84
-25.76
-20.79
-15.39
-12.69
-13.76
-17.14
-19.88
-19.33
-14.86
-8.41
-3.61
-3.96
-10.94
-23.01
-35.97
-44.67
-45.40
-37.52
-23.83
-9.13
2.05
7.43
7.54
4.98
2.76
2.93
6.18
12.22
20.49
30.79
43.24
57.91
74.60
92.24
108.94
122.13
129.20
128.15
118.39
100.94
78.33
53.91
30.93
11.84
-2.17
-11.06
-15.82
-18.01
-19.53
-22.03
-26.44
-32.54
-38.80
-42.74
-41.69
-33.74
-18.52
2.60
26.91
51.23
72.80
89.97
102.37
110.56
115.40
117.55
117.02
113.28
105.71
94.18
79.68
64.80
53.67
51.30
62.03
87.43
124.70
166.25
201.31
219.13
212.57
180.84
129.82
70.17
13.79
-29.69
-55.02
-61.59
-52.23
-31.42
-3.92
25.83
53.80
76.34
90.46
94.40
88.11
73.46
53.73
32.54
12.73
-4.23
-18.22
-29.80
-39.54
-47.40
-52.78
-54.90
-53.49
-49.27
-44.10
-40.69
-41.83
-49.48
-64.01
-84.07
-106.89
-129.23
-148.35
-162.64
-171.81
-176.33
-176.82
-173.43
-165.87
-153.83
-137.61
-118.44
-98.40
-79.82
-64.58
-53.57
-46.72
-43.41
-43.19
-46.31
-53.79
-66.94
-86.56
-112.23
-141.97
-172.68
-200.88
-223.69
-239.49
-248.10
-250.27
-247.06
-239.30
-227.54
-212.57
-196.00
-180.24
-167.97
-160.90
-159.11
-160.98
-164.00
-165.91
-165.40
-162.27
-156.78
-148.92
-137.94
-122.46
-100.84
-71.57
-33.54
13.73
70.06
134.44
204.99
278.83
352.03
419.97
478.27
524.22
558.02
583.12
604.73
627.04
650.31
669.69
676.72
663.36
626.18
568.50
499.24
428.98
365.18
309.75
259.80
210.76
159.68
106.63
54.22
5.56
-37.37
-74.94
-109.29
-142.77
-176.48
-209.65
-240.22
-265.90
-285.32
-298.04
-305.47
-310.32
-315.46
-322.60
-332.02
-342.93
-354.14
-364.28
-370.07
-368.63
-358.12
-337.88
-308.10
-270.16
-226.76
-181.43
-137.27
-92.40
-44.90
5.91
60.17
119.16
185.09
259.04
338.84
418.28
493.65
558.18
603.42
623.37
618.43
594.60
559.68
519.85
478.40
443.32
417.61
398.09
378.76
356.41
332.41
311.20
297.79
249.70
152.73
24.39
-102.89
-208.55
-288.26
-344.99
-383.15
-407.04
-420.98
-421.67
-408.58
-386.10
-361.19
-338.87
-320.99
-307.44
-297.08
-288.91
-276.70
-257.65
-234.27
-211.92
-194.59
-183.16
-176.29
-171.27
-165.53
-153.72
-133.07
-105.26
-75.43
-50.01
-35.48
-37.50
-58.33
-95.51
-139.15
-176.58
-196.75
-193.99
-169.76
-129.64
-86.68
-52.56
-33.56
-28.63
-33.26
-42.68
-53.80
-65.06
-75.83
-83.81
-86.02
-80.81
-68.10
-49.97
-29.26
-8.18
12.12
31.87
53.36
77.84
103.77
128.29
147.75
159.92
164.92
165.24
165.34
173.06
195.30
227.87
265.76
301.30
326.01
332.62
317.12
266.51
184.20
88.76
4.20
-52.66
-79.64
-85.21
-81.30
-77.38
-77.86
-80.24
-80.98
-78.82
-74.54
-70.50
-68.55
-68.90
-69.97
-69.48
-64.00
-52.88
-39.09
-26.61
-18.64
-15.78
-16.25
-16.97
-15.29
-8.96
1.78
14.00
24.41
30.50
31.71
29.12
24.56
19.65
15.55
11.98
7.00
-0.80
-11.88
-25.28
-38.86
-50.31
-57.90
-61.06
-60.65
-59.12
-58.29
-59.18
-61.69
-64.95
-68.06
-70.70
-73.55
-74.17
-75.30
-78.70
-85.18
-94.85
-107.10
-120.14
-130.43
-133.11
-123.63
-100.44
-65.53
-25.03
12.94
41.54
57.81
63.22
62.02
58.52
54.84
51.30
47.22
42.21
37.05
33.16
31.66
32.48
34.43
35.55
34.49
31.01
25.98
20.90
17.17
15.50
15.69
16.73
17.26
16.36
13.84
10.22
6.45
3.43
1.66
1.10
1.25
1.40
0.96
-0.31
-2.29
-4.57
-6.74
-8.49
-9.66
-10.37
-10.77
-11.12
-11.64
-12.42
-13.30
-13.93
-13.76
-12.21
-8.74
-3.14
4.61
13.89
23.94
34.03
43.60
52.61
61.46
70.74
80.63
90.59
99.40
105.37
106.85
102.38
90.95
72.35
47.56
19.09
-9.33
-33.42
-49.83
-57.06
-56.01
-49.47
-40.95
-33.24
-27.92
-25.49
-25.86
-29.22
-35.63
-44.92
-56.14
-67.96
-78.64
-86.60
-91.13
-92.14
-90.38
-86.59
-81.35
-75.02
-67.62
-59.02
-49.12
-38.08
-25.07
-11.39
2.04
14.75
26.60
37.82
48.73
59.48
69.75
79.01
86.18
90.58
91.82
89.82
85.22
79.11
72.70
66.93
62.45
58.67
55.15
51.49
47.38
43.20
39.66
37.51
37.03
37.55
37.64
35.75
30.74
21.88
9.84
-3.90
-17.91
-31.40
-44.65
-58.78
-75.15
-92.19
-110.72
-131.19
-153.40
-175.75
-194.79
-205.52
-202.87
-184.26
-151.38
-110.94
-71.61
-41.22
-23.60
-18.03
-20.61
-26.66
-33.38
-40.22
-47.93
-56.72
-65.53
-72.28
-75.04
-73.45
-67.52
-58.23
-46.65
-33.40
-18.26
-0.69
19.55
41.79
64.39
84.98
100.95
110.47
112.71
108.08
97.87
83.83
67.55
50.26
32.70
15.13
-2.11
-18.73
-34.40
-48.74
-61.31
-71.84
-80.09
-86.02
-89.94
-91.95
-92.48
-91.99
-90.79
-88.70
-84.98
-78.23
-66.56
-51.23
-32.74
-12.01
9.84
31.78
53.18
74.01
94.73
116.03
138.63
163.74
192.13
223.74
257.00
288.61
313.96
328.56
329.71
317.62
295.79
269.27
242.78
219.21
199.14
181.57
165.25
149.68
135.26
123.10
113.68
106.37
99.47
90.93
79.32
64.44
47.23
29.00
10.53
-8.47
-28.89
-51.20
-74.61
-97.00
-115.82
-129.26
-136.90
-139.43
-138.00
-133.45
-126.36
-117.39
-107.66
-98.77
-92.10
-88.27
-86.85
-86.77
-86.81
-86.00
-83.58
-78.92
-71.56
-61.56
-49.78
-37.81
-27.26
-19.04
-13.00
-8.31
-4.21
-0.67
1.63
1.94
0.06
-3.35
-7.08
-10.18
-12.49
-14.57
-17.04
-19.85
-22.15
-22.74
-21.02
-17.54
-14.03
-12.64
-14.84
-20.68
-28.63
-36.34
-41.39
-42.31
-38.91
-32.33
-24.70
-18.66
-16.55
-19.76
-28.02
-39.24
-50.11
-57.14
-58.04
-52.30
-41.39
-27.80
-13.65
0.14
13.91
28.57
44.67
62.11
80.18
98.05
114.99
130.04
141.69
148.13
147.98
141.47
130.96
120.14
112.46
109.44
109.97
111.28
110.45
106.03
98.67
90.51
84.04
81.00
81.86
85.70
90.51
94.15
94.74
91.51
84.75
75.43
64.48
52.50
39.91
27.83
18.40
13.99
15.96
23.23
32.69
40.80
45.84
48.73
52.40
59.51
70.63
83.87
95.93
104.16
107.65
107.29
104.90
102.04
99.61
97.51
94.75
89.34
78.30
58.54
27.89
-13.20
-61.17
-109.97
-153.14
-186.47
-209.79
-227.20
-245.56
-272.00
-311.35
-364.71
-427.95
-491.83
-543.90
-571.97
-568.38
-533.58
-477.47
-417.19
-372.87
-359.02
-378.97
-423.43
-474.52
-513.72
-528.71
-516.92
-484.22
-442.20
-400.94
-365.73
-336.80
-311.48
-287.63
-264.93
-244.24
-225.97
-211.05
-197.52
-181.38
-158.01
-123.68
-77.44
-20.86
43.94
128.53
236.97
364.78
497.50
615.13
700.20
742.53
741.56
705.87
650.07
587.20
527.20
476.09
433.00
395.89
362.60
331.80
303.10
276.58
248.91
215.87
173.75
121.32
60.66
-1.99
-58.95
-102.64
-127.13
-132.58
-123.37
-106.44
-88.55
-68.64
-48.09
-29.46
-21.11
-23.28
-34.20
-47.04
-54.96
-51.35
-32.55
-0.99
35.64
67.23
86.10
88.11
74.66
50.43
21.27
-8.02
-34.27
-54.02
-62.99
-56.75
-35.38
-5.22
21.89
33.51
22.26
-11.00
-57.33
-104.65
-142.38
-165.83
-175.93
-176.91
-172.77
-165.73
-156.41
-144.56
-130.43
-114.19
-96.41
-77.55
-57.97
-37.70
-16.70
4.63
26.17
44.92
57.03
59.38
51.28
34.69
13.13
-9.60
-30.67
-48.58
-63.28
-75.27
-85.67
-95.23
-104.27
-112.85
-120.57
-127.00
-131.86
-135.41
-138.06
-140.29
-142.39
-144.31
-146.24
-147.65
-147.59
-145.02
-139.23
-129.89
-117.19
-101.58
-83.55
-63.36
-40.65
-14.76
14.91
48.32
84.60
122.21
159.29
194.24
226.20
255.35
282.76
310.22
339.84
373.55
412.21
454.58
496.65
532.01
553.54
555.79
537.17
500.78
453.30
402.72
355.82
316.57
286.02
263.26
246.69
234.74
226.02
218.74
210.87
200.48
186.32
168.26
147.23
124.92
103.03
82.68
63.51
44.32
23.72
0.79
-24.41
-50.96
-77.51
-102.78
-125.91
-147.42
-168.18
-188.98
-210.05
-231.06
-251.49
-270.97
-289.34
-306.50
-323.45
-341.11
-360.02
-380.02
-400.26
-419.53
-436.58
-450.38
-452.73
-437.25
-400.92
-346.03
-279.55
-209.91
-143.91
-85.34
-35.43
6.16
39.30
64.05
80.80
90.61
95.26
96.75
96.90
96.94
97.62
98.31
98.14
96.43
93.05
88.50
83.65
79.27
75.88
73.67
72.08
70.45
68.28
65.51
62.39
59.39
56.82
54.85
53.51
52.57
51.82
51.27
51.05
51.34
52.27
53.61
55.08
56.38
57.21
57.41
56.81
55.47
52.78
47.98
40.25
29.02
14.35
-3.05
-21.77
-40.18
-56.84
-70.91
-82.11
-90.80
-97.49
-102.67
-106.69
-109.72
-111.69
-111.92
-109.21
-102.06
-89.70
-72.80
-54.06
-37.56
-27.13
-24.35
-27.40
-31.59
-31.53
-23.51
-7.05
15.05
38.64
59.95
77.32
90.83
100.59
105.66
104.39
96.08
82.01
65.70
50.72
39.26
30.57
21.05
6.20
-16.79
-46.76
-79.75
-111.16
-138.53
-160.85
-177.46
-187.06
-187.59
-177.17
-155.83
-126.68
-91.21
-56.55
-30.42
-16.41
-12.90
-15.77
-21.47
-28.21
-35.36
-42.15
-48.02
-51.70
-51.82
-47.97
-40.75
-31.11
-19.79
-6.86
8.50
27.21
50.66
79.75
113.43
147.99
177.64
196.15
199.11
185.67
158.64
124.16
89.60
60.99
41.35
30.47
25.95
24.71
24.12
22.55
19.57
15.66
11.64
8.13
5.39
3.15
1.01
-1.31
-3.93
-6.62
-9.06
-11.12
-13.02
-15.21
-18.13
-21.78
-25.65
-28.91
-30.80
-30.90
-29.32
-26.54
-23.04
-19.08
-14.57
-9.19
-2.75
4.62
12.21
18.94
23.70
25.92
25.80
24.35
22.81
22.19
22.87
24.45
26.23
27.53
28.13
28.17
27.98
27.75
27.54
27.42
27.47
27.90
28.80
30.00
30.97
31.13
30.08
27.85
24.93
21.84
19.03
16.59
14.31
11.91
9.12
5.87
2.09
-2.19
-6.99
-12.14
-17.34
-22.10
-25.88
-28.35
-29.34
-28.97
-27.43
-24.92
-21.43
-16.96
-11.56
-5.53
0.56
5.99
10.12
12.68
13.84
14.15
14.09
13.94
13.65
13.01
11.91
10.52
9.32
8.82
9.19
10.17
11.13
11.26
9.96
7.07
2.84
-2.13
-7.17
-11.76
-15.60
-18.62
-21.03
-23.16
-25.36
-27.81
-30.45
-32.97
-34.94
-36.03
-36.12
-35.39
-34.14
-32.55
-30.44
-27.26
-22.36
-15.21
-5.76
5.55
17.95
30.65
43.10
55.00
66.39
77.35
87.89
97.89
107.28
116.28
125.36
135.12
145.79
157.06
168.19
178.33
186.83
193.40
197.93
200.30
200.44
198.31
194.22
188.65
182.05
174.47
165.55
154.52
140.38
122.11
98.50
68.24
30.24
-15.81
-68.86
-126.40
-185.40
-243.63
-300.66
-357.71
-416.07
-475.24
-531.84
-580.07
-613.89
-629.48
-626.87
-609.81
-583.99
-554.63
-524.82
-495.36
-465.57
-434.84
-403.37
-372.06
-341.78
-312.76
-284.24
-255.04
-224.24
-191.65
-158.05
-124.79
-93.15
-63.82
-36.62
-10.62
15.34
41.98
69.17
95.80
120.37
142.00
161.07
179.63
200.54
225.59
253.82
281.05
301.27
309.47
304.16
288.09
266.87
246.47
231.07
222.33
219.95
222.71
228.99
236.58
242.17
241.79
232.18
212.51
185.35
156.12
130.94
114.14
106.53
105.19
105.11
101.64
92.54
78.84
63.77
50.88
42.07
36.82
33.01
28.80
24.63
23.13
27.58
39.47
56.61
73.20
82.16
78.54
62.39
40.13
20.96
12.34
16.17
28.01
39.86
44.61
39.72
27.93
17.03
13.91
20.98
35.26
51.06
63.83
72.94
81.46
93.84
116.38
151.84
198.28
249.68
298.53
338.70
367.14
383.63
390.19
394.71
405.61
429.20
466.79
514.08
562.69
603.46
629.39
612.17
537.60
409.17
249.37
88.53
-50.25
-157.96
-235.91
-289.30
-323.20
-337.34
-332.18
-310.94
-280.47
-248.36
-222.17
-205.59
-198.54
-198.57
-199.26
-195.72
-185.97
-171.97
-158.16
-149.20
-147.60
-153.54
-165.73
-177.51
-184.53
-185.54
-182.46
-178.72
-176.75
-176.23
-174.66
-168.89
-155.64
-133.69
-103.39
-66.22
-24.61
17.84
56.06
83.65
94.45
85.28
57.16
15.62
-31.67
-77.97
-120.18
-159.42
-199.74
-245.47
-298.05
-354.44
-407.04
-446.12
-463.39
-455.25
-424.06
-377.26
-324.13
-272.26
-225.32
-182.86
-142.02
-99.75
-54.61
-7.63
37.56
75.19
98.32
100.45
77.72
30.80
-33.87
-104.70
-167.59
-209.93
-224.13
-209.24
-169.97
-114.30
-51.13
11.91
69.27
117.08
152.54
174.00
181.96
179.85
173.06
165.58
157.67
145.40
123.11
87.23
39.53
-12.37
-57.81
-83.88
-83.94
-61.67
-29.81
-2.81
10.62
9.80
-0.66
-15.40
-30.98
-46.87
-63.47
-80.68
-96.89
-110.57
-119.62
-122.36
-118.78
-110.40
-99.92
-89.66
-80.62
-71.94
-61.56
-47.19
-25.94
3.86
42.77
88.03
137.08
188.16
240.51
293.48
345.61
396.04
442.63
482.58
512.92
531.75
538.50
533.94
519.65
485.28
426.35
344.44
247.94
149.09
59.36
-14.14
-69.16
-107.16
-131.52
-144.19
-147.39
-143.56
-135.42
-125.69
-116.74
-109.87
-105.34
-102.53
-98.91
-92.61
-83.10
-71.26
-58.74
-47.15
-36.97
-27.95
-19.34
-9.76
1.36
12.38
20.57
23.04
17.95
5.46
-12.92
-34.82
-57.02
-77.20
-94.78
-110.18
-124.42
-138.42
-152.53
-167.04
-181.04
-191.57
-194.30
-185.08
-162.47
-130.05
-97.77
-74.53
-67.77
-79.21
-103.41
-130.43
-150.60
-158.49
-154.77
-144.20
-132.11
-122.36
-116.19
-113.53
-114.64
-120.19
-129.91
-141.26
-148.68
-145.78
-128.83
-98.59
-60.53
-22.78
7.18
25.09
30.63
27.53
21.25
17.07
19.08
29.66
49.44
77.84
113.51
150.64
185.59
216.90
245.46
274.28
307.39
348.13
397.29
451.28
501.44
536.93
547.98
530.05
485.41
422.18
350.94
280.68
215.50
153.78
91.09
23.08
-51.97
-132.99
-216.78
-298.79
-371.39
-422.57
-442.45
-429.52
-392.51
-345.04
-299.30
-262.10
-234.90
-215.97
-203.50
-197.51
-198.47
-206.02
-216.14
-223.15
-222.30
-212.00
-194.14
-173.25
-154.97
-143.09
-137.87
-135.89
-131.85
-120.34
-98.86
-66.81
-26.44
16.46
53.23
74.59
74.16
51.31
12.35
-31.41
-67.66
-88.13
-90.96
-79.44
-58.31
-30.43
3.70
44.03
88.23
131.04
165.68
187.00
194.06
190.19
180.83
170.75
162.22
155.19
148.97
143.34
138.69
135.32
132.23
127.12
117.68
103.03
84.71
66.06
50.39
39.26
31.83
26.04
20.93
18.19
21.90
36.28
62.85
98.96
138.41
174.35
202.49
222.78
238.69
254.78
274.43
298.61
326.43
356.24
386.69
416.72
445.01
469.42
486.93
494.46
489.91
472.80
444.48
407.52
365.02
319.85
274.11
228.84
184.10
139.06
92.66
44.22
-5.95
-56.54
-105.84
-152.26
-195.12
-234.83
-272.61
-309.94
-348.14
-388.33
-430.90
-475.02
-517.88
-554.57
-579.23
-587.12
-577.06
-552.57
-520.91
-490.09
-465.54
-448.24
-435.19
-421.75
-404.18
-380.98
-352.26
-318.54
-279.72
-235.25
-185.01
-130.13
-73.19
-17.63
32.81
75.16
107.65
130.03
143.43
149.92
151.79
150.64
147.16
141.41
133.78
125.53
118.41
113.78
111.47
109.67
105.62
97.22
84.10
67.76
50.52
34.41
20.41
8.39
-2.29
-12.23
-21.70
-30.84
-40.01
-49.82
-60.59
-71.75
-81.38
-86.54
-84.69
-75.09
-59.74
-43.02
-30.24
-25.47
-30.12
-42.76
-60.00
-78.20
-94.76
-108.59
-119.65
-128.24
-134.48
-138.48
-140.80
-142.52
-145.01
-149.16
-154.43
-158.54
-157.91
-148.96
-129.81
-101.17
-66.24
-29.24
6.24
38.60
68.08
95.75
122.16
146.98
169.47
189.49
207.95
226.02
243.93
259.96
270.61
272.07
262.16
241.73
214.59
185.86
159.66
137.50
118.11
99.13
79.49
61.38
50.37
53.55
76.50
120.40
180.95
249.48
315.94
372.08
413.08
437.44
445.39
437.41
413.69
374.91
323.17
262.15
196.61
130.57
65.89
1.67
-64.98
-136.96
-214.93
-296.04
-373.92
-440.42
-488.05
-512.25
-512.64
-493.07
-460.35
-422.33
-385.85
-355.39
-332.49
-316.24
-304.25
-293.74
-282.48
-269.20
-253.64
-236.48
-219.19
-203.87
-192.71
-187.22
-187.34
-190.78
-193.09
-188.68
-172.34
-140.78
-93.94
-35.24
28.77
89.95
141.12
178.44
203.29
221.80
242.49
272.36
313.49
361.45
406.90
439.39
451.71
442.75
417.29
383.51
349.30
319.26
293.43
268.19
238.48
200.88
156.11
109.95
71.62
50.28
50.84
70.83
100.21
124.47
130.27
111.45
71.65
23.07
-18.00
-37.26
-26.75
13.39
75.94
149.99
224.52
289.70
337.90
364.52
367.90
349.06
311.30
258.99
197.82
135.21
77.33
27.72
-12.85
-46.78
-79.13
-116.11
-164.27
-227.32
-303.14
-386.50
-470.23
-545.25
-602.80
-636.81
-645.69
-634.31
-610.45
-579.42
-544.95
-508.77
-469.41
-424.35
-372.03
-303.63
-218.42
-136.96
-73.70
-34.84
-25.90
-47.20
-92.47
-150.06
-207.14
-255.59
-292.91
-319.06
-336.85
-349.13
-355.64
-354.34
-344.24
-327.42
-309.89
-297.44
-290.88
-287.72
-283.80
-274.55
-257.59
-233.44
-204.78
-175.50
-147.86
-120.64
-91.38
-57.93
-19.10
24.44
70.35
115.33
156.06
190.75
219.96
245.62
269.89
294.84
321.41
349.01
375.48
397.56
412.21
418.07
415.90
408.46
399.57
392.62
389.36
389.57
391.66
393.77
394.56
393.63
391.15
387.43
382.52
376.13
367.85
357.26
344.05
328.12
309.74
289.61
268.83
248.69
230.18
213.76
199.16
185.65
172.38
158.74
144.43
129.39
113.60
97.02
79.79
62.26
45.18
29.53
16.33
6.29
-0.41
-4.07
-5.27
-4.60
-2.65
0.06
2.90
5.13
6.10
5.51
3.60
1.19
-0.56
-0.63
1.54
5.80
11.29
16.92
21.72
25.26
27.75
29.79
31.83
33.81
34.94
34.18
30.86
25.33
18.95
13.38
9.65
7.50
5.52
1.88
-4.72
-14.59
-27.33
-42.49
-60.11
-80.63
-104.50
-131.64
-161.60
-193.98
-228.76
-266.22
-306.19
-347.11
-385.88
-418.41
-440.94
-451.15
-448.50
-433.86
-408.84
-375.33
-335.41
-291.37
-245.81
-201.27
-159.57
-121.47
-86.78
-55.07
-26.13
-0.30
22.01
40.91
57.32
73.16
91.03
113.63
143.21
180.58
224.10
269.21
309.22
337.31
349.78
348.16
338.89
330.58
329.87
338.39
352.52
365.77
371.57
366.48
351.01
328.77
304.50
282.00
262.90
246.45
230.10
209.45
180.62
141.79
93.84
39.96
-16.31
-72.80
-128.99
-185.51
-244.10
-305.51
-368.98
-432.33
-492.58
-546.54
-591.22
-623.95
-634.35
-614.60
-562.43
-483.93
-391.80
-299.53
-216.21
-144.97
-84.86
-33.80
8.28
40.81
63.69
78.38
87.80
95.07
102.28
109.97
117.62
123.32
126.12
126.24
125.05
124.40
125.45
128.18
131.28
133.38
131.35
123.26
108.54
88.07
63.68
37.42
11.05
-14.28
-37.79
-59.77
-79.89
-97.46
-111.62
-121.49
-126.43
-126.23
-121.14
-108.26
-89.08
-65.72
-40.23
-14.33
10.68
33.82
54.48
72.32
87.53
100.13
110.76
120.08
128.46
135.93
142.06
147.00
149.72
149.33
144.78
135.48
120.98
100.99
75.52
45.38
12.78
-19.85
-49.86
-75.32
-95.01
-108.90
-118.05
-124.07
-128.54
-132.34
-135.44
-136.94
-135.95
-131.98
-125.43
-117.49
-109.76
-103.62
-100.31
-100.89
-105.71
-113.76
-122.03
-125.81
-120.14
-102.26
-73.42
-39.06
-6.79
16.65
28.19
28.92
22.62
13.53
4.18
-4.97
-14.55
-24.60
-34.19
-41.26
-44.04
-42.42
-36.71
-28.02
-17.57
-5.88
7.40
22.94
41.23
61.80
83.10
103.05
119.40
130.46
135.62
135.35
130.81
123.47
114.26
103.45
91.04
76.67
59.98
41.01
20.18
-2.35
-25.09
-46.37
-65.48
-81.36
-93.08
-99.89
-101.37
-97.58
-89.30
-77.92
-65.34
-53.77
-44.88
-39.84
-39.23
-42.98
-50.43
-60.77
-72.93
-86.09
-99.47
-111.90
-122.28
-129.72
-133.68
-134.10
-131.52
-126.86
-121.30
-115.78
-110.21
-103.97
-96.10
-85.82
-72.89
-57.88
-41.97
-26.32
-14.11
-6.14
-1.48
2.13
7.33
16.17
29.39
46.52
66.16
86.92
108.71
132.45
159.89
193.13
234.04
283.42
339.88
398.95
453.09
493.58
513.03
508.61
483.60
446.45
407.62
375.68
354.34
342.21
334.59
325.71
310.67
286.18
251.29
207.87
160.40
114.70
75.37
43.41
15.34
-14.88
-53.22
-102.36
-160.60
-223.15
-284.87
-342.63
-395.54
-443.63
-482.61
-505.74
-506.35
-481.61
-434.74
-373.86
-308.74
-247.61
-195.15
-152.31
-118.02
-90.26
-67.29
-48.32
-33.28
-22.62
-16.70
-15.32
-17.33
-21.21
-25.18
-27.70
-28.34
-27.28
-25.39
-23.82
-23.38
-24.28
-26.72
-30.97
-37.26
-45.19
-52.40
-54.79
-48.00
-29.75
-1.69
30.43
59.00
79.02
87.76
86.89
80.77
73.97
69.00
65.84
62.92
58.70
52.71
45.12
36.39
26.40
14.53
0.01
-17.52
-37.35
-57.78
-76.66
-92.41
-104.28
-112.78
-118.91
-124.11
-129.58
-135.75
-142.29
-148.35
-153.29
-156.83
-159.40
-161.20
-162.69
-164.18
-165.50
-165.96
-164.53
-160.01
-150.83
-139.82
-127.90
-115.66
-103.28
-90.60
-77.32
-63.09
-47.74
-31.21
-13.55
5.91
27.75
52.43
80.04
109.91
140.42
169.10
192.99
209.21
216.30
214.05
203.66
187.49
168.52
149.56
132.71
119.21
109.49
104.04
103.02
106.61
114.96
128.31
146.70
169.61
195.36
220.85
242.01
254.37
254.40
240.92
215.93
183.97
150.84
121.79
100.11
86.60
79.63
76.21
73.26
69.43
64.65
59.68
55.03
50.32
44.49
36.29
25.23
12.13
0.29
-7.06
-8.12
-3.59
4.01
11.62
16.80
18.08
14.95
10.03
6.07
5.22
7.86
12.88
18.69
24.21
29.31
35.02
46.40
67.81
101.69
146.73
198.95
254.15
309.43
363.37
394.73
388.43
339.00
255.23
154.25
52.56
-39.22
-116.82
-180.76
-233.78
-273.41
-300.46
-314.22
-314.13
-300.67
-275.55
-242.35
-207.03
-177.31
-158.35
-154.60
-166.61
-190.80
-219.28
-241.30
-246.98
-230.41
-191.24
-132.68
-61.90
12.64
82.32
140.06
181.38
203.55
205.20
186.11
147.98
93.51
27.10
-45.88
-119.63
-183.91
-228.14
-246.85
-242.51
-222.82
-196.27
-168.46
-141.81
-116.60
-92.55
-70.39
-51.65
-37.48
-27.65
-20.63
-14.49
-8.20
-2.32
1.50
1.06
-4.84
-15.01
-25.87
-32.97
-33.02
-25.73
-13.92
-2.47
3.80
1.71
-9.13
-26.14
-44.70
-59.33
-65.42
-59.93
-43.04
-18.11
8.74
30.88
43.69
46.19
40.74
31.43
22.06
14.96
12.25
15.72
26.90
46.39
73.21
104.69
137.33
168.19
189.60
196.92
189.72
171.39
146.82
120.01
93.59
69.26
48.18
30.65
17.22
8.20
3.44
2.20
3.25
4.79
4.74
1.26
-6.87
-18.88
-32.46
-44.77
-53.60
-58.09
-57.89
-52.70
-42.30
-27.43
-9.42
9.57
27.09
41.27
51.18
56.45
56.38
49.45
33.61
8.72
-22.15
-52.85
-76.02
-86.28
-82.72
-69.64
-52.79
-39.93
-36.81
-45.02
-61.86
-81.58
-97.52
-104.72
-101.52
-89.57
-73.20
-57.07
-44.62
-37.40
-35.27
-37.41
-43.21
-52.61
-65.55
-81.40
-98.29
-113.09
-122.48
-124.16
-118.05
-106.33
-92.54
-79.96
-70.36
-63.47
-57.25
-49.02
-36.61
-19.05
3.67
31.51
65.08
105.46
151.21
197.24
235.69
259.45
265.40
255.04
232.69
203.39
171.63
140.85
113.78
92.55
78.32
70.76
67.73
65.84
61.59
52.51
37.79
18.49
-2.75
-22.30
-37.03
-44.74
-45.17
-40.68
-36.09
-37.26
-48.62
-70.17
-97.33
-122.09
-136.57
-136.74
-123.96
-103.66
-82.23
-63.99
-50.01
-39.02
-29.33
-20.46
-13.33
-9.20
-8.44
-10.08
-12.17
-12.72
-10.70
-6.36
-1.04
3.46
5.85
5.83
4.19
2.32
1.55
2.52
5.00
8.07
10.55
11.67
11.26
9.86
8.35
7.65
8.32
10.43
13.71
17.61
21.73
25.89
30.12
34.56
39.22
43.83
47.76
50.18
50.17
47.03
40.53
30.99
19.25
6.52
-5.96
-17.17
-26.46
-33.59
-38.56
-41.46
-42.36
-41.18
-37.85
-32.56
-25.98
-19.07
-12.93
-8.30
-5.44
-4.37
-5.04
-7.67
-12.57
-19.60
-27.36
-33.30
-34.39
-28.77
-17.01
-2.03
12.00
21.69
25.16
22.79
16.46
8.61
1.83
-1.43
1.54
12.75
33.28
60.86
90.27
114.69
128.05
127.22
112.62
88.26
59.75
32.91
10.72
-6.87
-22.61
-40.32
-63.44
-94.43
-130.76
-169.22
-199.29
-212.05
-203.35
-176.37
-139.04
-98.97
-60.72
-25.61
6.17
34.50
57.38
72.87
80.33
81.01
78.24
75.69
76.34
81.31
90.06
99.50
106.08
107.06
101.67
91.12
77.86
64.70
53.80
46.28
40.55
34.32
25.44
12.67
-3.96
-23.57
-44.96
-67.69
-86.16
-99.66
-109.58
-117.98
-126.44
-135.71
-145.93
-156.73
-166.67
-172.60
-170.75
-157.01
-129.08
-88.75
-42.24
1.88
35.97
56.26
63.77
62.41
56.71
49.95
43.29
36.72
30.42
25.55
23.81
26.27
32.12
39.21
44.98
47.22
45.12
39.29
31.24
22.66
14.56
6.87
-1.14
-10.04
-19.75
-29.28
-36.96
-40.80
-39.55
-33.27
-23.35
-11.90
-0.90
8.64
16.66
24.22
32.53
42.09
52.20
61.31
67.65
70.37
70.18
69.23
70.28
75.47
85.20
97.62
109.44
117.16
118.72
114.44
106.85
99.89
97.70
103.37
117.73
138.75
161.59
179.61
186.07
176.26
149.71
111.65
72.00
41.81
29.31
36.31
57.44
82.35
100.08
101.43
83.08
48.38
4.15
-42.40
-86.64
-127.11
-163.79
-196.28
-222.46
-239.17
-244.39
-240.55
-233.31
-229.22
-232.41
-242.48
-254.83
-263.08
-261.60
-248.11
-226.04
-201.66
-181.59
-170.53
-170.58
-182.20
-204.70
-235.85
-261.22
-267.61
-246.41
-198.50
-133.89
-66.22
-7.27
36.51
64.79
81.34
89.19
91.06
88.24
81.96
74.70
69.90
70.86
79.55
95.86
116.82
138.05
156.37
170.70
182.48
194.93
211.87
236.13
267.81
302.44
332.21
348.42
344.05
316.78
270.05
211.64
150.71
94.25
44.93
-0.19
-41.82
-78.73
-108.13
-127.39
-135.46
-133.47
-124.35
-111.71
-98.40
-85.55
-73.29
-61.11
-48.83
-36.77
-25.72
-16.71
-10.52
-7.12
-5.40
-4.03
-1.74
2.20
7.92
15.18
23.57
32.67
42.40
53.10
64.82
77.18
89.72
100.87
108.97
112.46
110.23
101.86
87.72
68.75
46.22
22.38
-0.98
-22.35
-40.59
-55.05
-65.41
-71.82
-74.71
-74.69
-72.59
-69.32
-65.55
-61.76
-58.17
-54.82
-51.70
-48.75
-45.80
-42.85
-40.02
-37.37
-34.96
-32.79
-30.75
-28.78
-26.84
-24.90
-23.05
-21.42
-20.08
-19.09
-18.40
-17.78
-17.04
-16.07
-14.92
-13.87
-13.38
-13.77
-15.31
-18.50
-22.72
-27.45
-32.14
-36.38
-39.90
-42.97
-44.64
-43.93
-39.70
-30.85
-17.17
0.67
20.74
40.11
55.63
64.72
65.95
59.52
47.82
32.56
15.84
-0.85
-16.78
-31.68
-45.57
-58.82
-71.94
-85.14
-97.86
-107.66
-110.63
-103.44
-83.91
-53.78
-18.73
13.65
37.00
48.29
48.79
42.45
33.48
24.51
16.02
7.32
-2.07
-11.60
-20.09
-26.54
-31.06
-34.93
-39.87
-47.39
-57.89
-70.62
-83.98
-96.19
-105.83
-112.19
-115.29
-115.77
-113.61
-108.49
-99.88
-87.33
-70.94
-51.53
-30.82
-11.13
5.20
16.30
21.22
20.01
13.68
3.88
-7.29
-17.68
-25.35
-28.64
-26.27
-17.59
-2.53
18.33
42.99
69.51
95.78
119.81
139.95
155.10
164.66
168.72
167.85
162.93
155.07
145.39
134.80
124.04
113.56
103.48
93.85
84.69
75.97
67.74
60.07
53.02
46.63
41.45
36.95
32.80
28.83
24.97
21.38
18.25
15.81
14.13
13.10
12.34
11.52
10.38
8.89
7.35
6.25
6.07
7.01
8.88
11.02
12.73
13.51
13.29
12.58
12.22
13.04
15.40
19.05
23.09
26.61
28.98
30.08
30.39
30.58
31.23
32.79
35.69
40.28
46.51
53.14
57.28
55.02
42.85
19.71
-11.88
-46.16
-76.26
-96.84
-105.93
-105.36
-99.03
-90.89
-83.34
-76.94
-71.28
-66.24
-62.61
-61.46
-62.89
-64.99
-64.17
-56.83
-41.78
-21.64
-2.36
9.34
9.27
-2.30
-20.68
-39.15
-52.08
-57.30
-56.01
-51.37
-46.44
-42.66
-40.14
-38.30
-36.85
-35.91
-35.41
-33.75
-27.74
-13.54
11.56
46.56
86.64
124.36
152.32
165.89
164.55
151.19
129.19
103.37
76.02
48.17
20.80
-4.39
-25.04
-39.30
-46.75
-48.74
-47.09
-43.92
-40.24
-35.62
-28.93
-18.90
-4.81
13.16
33.73
54.66
72.02
81.17
78.10
61.10
32.27
-2.84
-37.01
-64.05
-80.86
-88.26
-89.39
-86.99
-83.53
-79.09
-72.75
-63.93
-53.38
-42.70
-33.52
-26.45
-21.02
-16.33
-11.35
-5.80
-0.23
4.40
7.39
8.47
8.14
7.27
6.57
6.56
7.29
8.58
10.36
12.93
16.72
22.31
29.88
38.83
48.07
56.13
61.69
63.87
62.45
57.52
49.37
38.08
23.68
6.41
-13.10
-33.88
-55.08
-75.80
-94.66
-109.25
-116.25
-112.46
-96.29
-69.63
-37.04
-5.08
20.26
35.82
41.89
41.33
37.66
33.65
30.44
28.27
27.10
27.12
28.59
31.27
34.29
36.53
37.43
37.05
36.33
36.34
37.76
40.53
44.14
47.86
50.96
52.60
51.68
47.53
40.56
32.58
26.21
23.54
24.56
26.60
25.61
18.24
4.50
-11.89
-25.08
-30.51
-27.39
-19.25
-11.98
-10.65
-17.35
-30.67
-47.27
-63.86
-79.03
-93.26
-107.42
-121.91
-134.51
-141.99
-141.27
-131.11
-112.48
-88.36
-62.66
-38.55
-17.58
0.57
17.02
32.68
47.14
58.71
64.88
63.77
55.48
42.38
28.79
18.99
15.73
19.04
26.25
33.00
35.02
29.49
15.41
-5.94
-31.23
-55.49
-72.68
-77.14
-66.19
-41.93
-11.60
14.18
25.71
18.60
-4.14
-33.36
-57.04
-66.66
-60.56
-43.06
-21.10
0.08
18.83
36.28
53.87
71.47
86.79
96.64
99.59
97.00
92.60
90.66
94.16
102.09
110.62
114.48
109.25
93.05
66.87
33.66
-2.87
-38.25
-68.44
-89.42
-98.00
-92.86
-75.50
-50.32
-23.34
-0.02
16.44
25.45
28.55
27.63
23.90
17.94
10.38
2.48
-3.47
-5.13
-1.84
4.31
8.41
4.30
-13.14
-44.09
-83.45
-121.89
-149.11
-158.07
-147.58
-122.21
-89.69
-57.05
-28.03
-2.90
19.72
40.82
59.38
72.93
79.06
76.56
66.11
49.54
29.16
7.43
-12.68
-27.73
-34.38
-29.92
-15.96
2.72
19.79
29.76
30.22
22.48
10.10
-3.28
-15.58
-26.83
-37.69
-48.46
-58.52
-66.81
-72.61
-75.96
-77.70
-78.62
-79.73
-79.84
-77.33
-70.62
-58.85
-42.38
-22.60
-1.63
18.37
35.54
49.05
58.59
64.27
66.33
65.05
60.76
54.00
45.53
36.19
26.90
18.15
10.02
2.41
-4.90
-11.92
-18.32
-23.54
-26.72
-26.46
-21.04
-8.97
9.59
31.75
51.71
62.22
57.28
34.88
-2.07
-46.97
-92.26
-131.91
-162.43
-182.48
-191.97
-191.50
-182.39
-166.98
-148.13
-127.86
-107.04
-84.28
-56.80
-22.31
19.12
64.93
110.72
152.15
186.45
212.64
231.38
244.52
254.95
266.33
281.88
302.35
324.48
341.00
342.89
323.32
280.81
220.39
151.46
84.15
25.55
-22.00
-60.26
-93.09
-124.38
-157.43
-194.86
-238.32
-287.25
-337.58
-381.57
-409.49
-413.25
-389.63
-342.61
-282.39
-221.85
-172.01
-138.35
-119.91
-110.77
-103.14
-90.60
-70.07
-42.19
-10.21
21.84
50.96
75.92
97.33
116.87
136.56
157.97
181.82
208.10
235.80
263.11
287.05
303.83
310.45
306.71
296.29
286.12
283.63
292.85
312.34
334.65
349.35
348.19
329.00
296.31
258.65
224.07
196.17
173.84
152.41
126.48
93.55
54.95
14.48
-23.79
-57.11
-88.42
-117.86
-143.00
-160.70
-167.43
-160.84
-140.86
-109.95
-71.86
-32.48
3.39
33.79
56.46
70.66
76.74
75.26
66.01
48.94
21.39
-18.76
-72.32
-141.17
-222.84
-311.85
-401.44
-484.92
-555.41
-610.40
-648.55
-654.03
-617.26
-537.73
-425.27
-296.87
-180.29
-81.42
-2.26
55.71
91.09
100.73
82.21
37.90
-24.03
-88.95
-138.57
-162.36
-160.12
-140.29
-116.78
-103.82
-103.35
-110.70
-118.59
-119.60
-111.61
-95.88
-73.73
-48.18
-21.26
7.03
37.37
70.64
108.18
149.36
193.22
239.09
285.48
330.17
370.57
403.10
424.68
434.54
433.80
425.56
413.80
401.61
390.51
380.40
369.25
353.57
330.74
300.65
267.30
238.24
221.48
221.47
236.35
257.67
272.59
270.48
247.39
207.12
158.33
109.50
65.18
25.54
-11.61
-50.16
-92.06
-136.74
-181.65
-223.63
-260.42
-291.28
-316.62
-337.16
-356.26
-377.36
-403.30
-436.13
-477.12
-526.96
-585.06
-648.04
-692.34
-695.40
-643.91
-542.53
-412.39
-279.76
-165.22
-78.70
-20.24
16.11
35.14
40.01
32.56
14.94
-8.70
-33.14
-53.63
-67.26
-73.34
-75.06
-77.98
-84.98
-96.51
-110.34
-123.35
-133.08
-138.67
-140.83
-142.58
-147.14
-156.32
-169.99
-185.53
-199.31
-208.00
-209.43
-202.77
-188.90
-169.21
-144.41
-117.41
-89.79
-62.74
-37.33
-14.62
4.39
18.71
27.64
31.18
29.71
24.37
16.43
6.99
-3.09
-13.15
-22.63
-31.06
-37.92
-42.86
-45.25
-44.56
-40.42
-32.60
-21.14
-6.41
10.75
29.10
46.95
62.57
74.32
80.91
81.77
77.16
68.11
56.23
43.39
31.44
22.09
16.84
16.94
23.61
37.86
60.36
91.09
129.15
172.66
219.08
265.74
310.32
351.34
388.22
421.13
450.77
478.15
504.41
530.48
556.60
581.76
603.70
619.25
625.45
620.63
605.11
581.13
552.02
521.08
490.51
461.17
432.81
404.73
376.43
347.76
318.80
289.50
259.25
227.11
192.45
155.66
118.64
84.37
55.54
33.18
16.05
1.17
-14.47
-32.30
-51.33
-68.83
-81.86
-88.94
-90.73
-89.71
-89.01
-91.22
-97.55
-107.75
-120.53
-134.11
-146.87
-157.61
-165.75
-171.16
-174.03
-174.65
-173.43
-170.78
-167.09
-162.53
-156.89
-149.64
-140.30
-128.85
-116.01
-103.06
-91.27
-81.26
-72.68
-64.42
-55.24
-44.36
-31.87
-18.44
-4.98
7.85
19.64
30.01
38.41
44.13
46.57
45.67
42.14
37.36
32.78
29.34
27.05
25.09
22.15
16.96
8.71
-2.70
-16.67
-32.04
-47.31
-60.99
-71.86
-79.34
-83.63
-85.59
-86.53
-87.68
-89.90
-93.48
-98.40
-104.61
-112.10
-120.73
-129.88
-138.35
-144.65
-147.68
-147.36
-144.85
-142.13
-140.93
-141.78
-143.74
-144.91
-143.73
-139.95
-135.01
-131.42
-131.36
-135.54
-142.70
-150.22
-155.32
-156.27
-152.96
-146.53
-138.41
-129.47
-119.77
-109.09
-97.64
-86.53
-77.35
-71.14
-67.32
-63.59
-56.91
-45.15
-28.47
-9.37
8.43
21.99
30.40
34.86
37.50
39.79
41.75
42.21
40.05
35.19
28.82
22.43
16.68
11.00
4.15
-4.41
-13.69
-21.32
-24.87
-23.31
-17.79
-11.05
-5.93
-4.03
-5.16
-8.06
-11.44
-14.97
-19.33
-25.52
-33.79
-43.20
-51.85
-57.70
-59.42
-56.84
-50.84
-42.85
-34.23
-25.71
-16.93
-6.54
7.28
25.61
47.82
71.12
91.28
104.26
107.79
102.36
90.79
76.89
63.87
53.52
46.22
41.65
39.47
39.53
41.58
45.15
49.42
53.45
56.62
58.76
60.19
61.74
64.57
69.81
78.06
88.90
100.82
111.71
119.77
124.21
125.42
124.46
122.18
118.62
113.01
104.40
92.39
77.59
61.50
45.92
32.44
21.88
14.19
8.29
2.20
-6.99
-22.63
-47.46
-82.25
-124.83
-170.10
-211.41
-242.67
-260.42
-264.64
-258.17
-245.09
-229.05
-212.42
-196.49
-182.08
-169.98
-160.70
-153.83
-147.67
-139.65
-127.40
-110.05
-88.74
-66.21
-45.75
-29.94
-19.64
-13.77
-9.60
-3.80
6.35
21.84
41.36
61.57
78.44
88.79
91.64
88.49
82.31
76.07
71.27
67.62
63.73
58.31
51.16
43.26
36.04
30.47
26.50
23.24
19.62
15.17
10.45
6.71
5.28
6.70
10.38
14.85
18.50
20.45
21.10
21.91
24.68
30.60
39.78
51.37
64.11
76.86
88.76
99.07
106.87
111.25
111.76
109.14
105.47
103.69
106.38
114.46
126.68
140.07
151.25
158.01
160.11
159.25
157.93
158.15
160.41
163.66
165.82
164.77
159.03
147.84
131.13
109.29
83.46
55.72
29.31
8.06
-4.68
-7.41
-1.48
8.85
17.46
18.31
7.53
-15.12
-46.15
-79.43
-108.41
-128.27
-137.20
-136.32
-128.47
-116.57
-102.69
-87.87
-72.73
-58.13
-45.37
-35.71
-29.82
-27.35
-27.09
-27.53
-27.45
-26.42
-24.82
-23.78
-24.67
-28.67
-36.19
-46.53
-58.14
-69.33
-79.28
-88.60
-99.45
-114.84
-137.72
-169.76
-210.57
-257.34
-305.26
-348.71
-382.76
-404.68
-414.70
-415.58
-411.19
-404.68
-397.31
-388.32
-375.91
-358.54
-335.84
-308.54
-277.93
-244.91
-209.69
-171.92
-131.08
-86.77
-38.88
12.34
66.11
120.80
173.69
221.46
260.93
290.18
309.22
319.86
324.92
327.09
328.19
329.06
330.14
332.10
336.11
343.31
354.09
367.59
381.67
393.51
400.36
400.15
391.80
375.45
352.35
324.66
295.14
266.58
241.16
219.90
202.39
187.06
171.79
154.89
135.75
115.34
95.88
80.21
70.70
68.38
72.43
80.37
88.79
94.36
94.65
88.53
76.22
58.87
38.27
16.32
-5.33
-25.68
-44.65
-62.86
-81.29
-100.55
-120.54
-140.32
-158.50
-173.76
-185.35
-193.24
-198.05
-200.67
-201.97
-202.53
-202.50
-201.62
-199.38
-195.31
-189.26
-181.48
-172.54
-163.00
-153.23
-143.34
-133.32
-123.31
-113.69
-104.92
-97.24
-90.45
-83.93
-76.84
-68.48
-58.61
-47.53
-35.96
-24.77
-14.59
-5.62
2.41
10.10
18.05
26.66
35.97
45.58
54.85
63.08
69.70
74.54
77.79
80.02
81.91
84.06
86.72
89.79
92.85
95.43
97.22
98.21
98.69
99.11
99.95
101.46
103.57
105.84
107.50
107.75
105.97
102.00
96.24
89.67
83.55
79.09
77.09
77.48
79.07
79.52
75.91
65.65
47.60
22.86
-5.29
-32.40
-54.47
-69.41
-77.76
-82.25
-86.60
-93.93
-105.76
-121.73
-140.08
-158.62
-175.48
-189.71
-201.17
-210.15
-216.61
-219.81
-218.41
-211.08
-197.32
-177.96
-154.98
-130.80
-107.34
-85.57
-65.52
-46.97
-29.99
-15.13
-3.20
5.30
10.64
13.75
15.88
18.12
20.94
24.23
27.38
29.73
30.80
30.50
29.04
26.84
24.26
21.47
18.51
15.36
12.03
8.68
5.51
2.70
0.32
-1.72
-3.63
-5.61
-7.75
-9.95
-11.94
-13.41
-14.09
-13.84
-12.72
-10.84
-8.40
-5.55
-2.46
0.67
3.57
6.05
8.20
10.42
13.47
18.02
24.40
32.18
40.30
47.36
52.22
54.29
53.68
50.82
46.22
40.35
33.82
27.79
24.03
24.44
30.22
41.03
54.91
68.88
80.21
87.44
90.90
92.14
92.98
94.47
96.35
97.39
96.02
91.14
82.59
71.13
58.08
44.77
32.09
20.20
8.63
-3.25
-15.81
-28.91
-41.98
-54.55
-66.67
-78.93
-92.13
-106.50
-121.28
-134.71
-144.75
-150.00
-150.36
-147.00
-141.66
-135.79
-129.89
-123.53
-115.87
-106.30
-94.82
-81.97
-68.47
-54.88
-41.47
-28.38
-15.86
-4.39
5.41
13.12
18.72
22.63
25.48
27.90
30.26
32.61
34.79
36.57
37.70
38.03
37.55
36.44
34.96
33.41
31.93
30.37
28.44
25.84
22.52
18.79
15.15
12.07
9.67
7.72
5.76
3.43
0.69
-2.15
-4.62
-6.34
-7.24
-7.56
-7.62
-7.59
-7.29
-6.29
-4.14
-0.74
3.54
7.86
11.31
13.30
13.98
14.22
15.19
17.77
22.01
26.98
31.14
33.03
31.96
28.32
23.27
18.27
14.44
12.35
12.02
13.32
16.16
20.48
26.07
32.34
38.32
42.94
45.48
45.88
44.85
43.53
42.86
43.07
43.44
42.69
39.62
33.89
26.25
18.16
10.96
5.05
-0.35
-6.75
-15.38
-26.38
-38.65
-50.38
-60.01
-66.87
-71.27
-73.92
-75.37
-75.71
-74.80
-72.80
-70.44
-68.87
-69.10
-71.36
-74.83
-78.04
-79.48
-78.27
-74.29
-68.00
-59.98
-50.67
-40.37
-29.45
-18.49
-8.18
0.84
8.29
14.21
18.83
22.35
24.86
26.46
27.37
27.95
28.49
29.03
29.22
28.54
26.64
23.51
19.55
15.33
11.34
7.84
4.87
2.45
0.67
-0.39
-0.77
-0.70
-0.57
-0.65
-0.99
-1.36
-1.36
-0.71
0.69
2.65
4.84
6.89
8.58
9.81
10.65
11.23
11.78
12.50
13.55
14.92
16.31
17.12
16.57
13.92
8.91
2.06
-5.28
-11.28
-14.36
-13.87
-10.51
-6.04
-2.50
-1.29
-2.53
-5.16
-7.50
-8.20
-6.68
-3.16
1.83
7.89
14.86
22.66
30.96
39.10
46.28
51.98
56.27
59.78
63.31
67.45
72.19
77.04
81.23
84.10
85.21
84.36
81.42
76.37
69.34
60.68
50.82
40.12
28.69
16.47
3.41
-10.34
-24.39
-38.32
-51.99
-65.63
-79.55
-93.76
-107.51
-119.45
-128.14
-132.66
-132.95
-129.70
-123.77
-115.76
-105.93
-94.48
-81.85
-68.84
-56.34
-44.95
-34.74
-25.38
-16.40
-7.54
1.11
9.23
16.55
22.97
28.60
33.60
37.95
41.49
43.89
44.90
44.44
42.71
40.12
37.13
34.04
30.88
27.50
23.73
19.57
15.29
11.39
8.35
6.45
5.63
5.58
5.91
6.33
6.79
7.39
8.26
9.41
10.70
11.90
12.86
13.58
14.11
14.53
14.71
14.37
13.19
11.07
8.31
5.57
3.62
3.06
4.06
6.46
9.94
14.19
19.03
24.26
29.51
34.25
37.98
40.47
41.98
43.03
44.14
45.57
47.25
48.97
50.76
52.94
55.93
59.88
64.30
68.12
70.09
69.36
65.86
60.29
53.67
46.74
39.61
31.78
22.50
11.26
-1.92
-16.58
-31.99
-47.50
-62.68
-77.22
-90.75
-102.71
-112.43
-119.37
-123.37
-124.62
-123.70
-121.19
-117.53
-112.94
-107.47
-101.12
-94.04
-86.45
-78.56
-70.53
-62.35
-54.00
-45.56
-37.24
-29.39
-22.42
-16.57
-11.78
-7.75
-3.94
0.15
4.82
10.05
15.49
20.64
25.00
28.19
30.11
30.87
30.77
30.14
29.31
28.44
27.46
26.19
24.31
21.62
18.19
14.47
11.17
9.05
8.61
9.82
12.17
14.87
17.20
18.74
19.48
19.66
19.58
19.40
19.13
18.66
17.87
16.74
15.18
13.05
10.14
6.30
1.72
-2.96
-6.68
-8.33
-7.20
-3.38
2.09
7.61
11.54
12.83
11.37
8.03
4.24
1.56
1.10
3.26
7.66
13.30
18.97
23.67
26.92
28.83
29.94
30.70
31.13
30.79
29.01
25.57
21.02
16.63
13.86
13.70
16.15
20.36
25.17
29.72
33.76
37.45
40.94
44.07
46.32
47.25
46.81
45.35
43.39
41.17
38.43
34.51
28.78
20.99
11.46
0.82
-10.33
-21.72
-33.30
-44.95
-56.19
-66.09
-73.73
-78.66
-81.20
-82.38
-83.38
-84.92
-86.87
-88.48
-88.82
-87.47
-84.67
-81.17
-77.70
-74.59
-71.67
-68.53
-64.91
-60.87
-56.76
-52.87
-49.23
-45.53
-41.30
-36.15
-29.93
-22.76
-14.89
-6.66
1.58
9.43
16.44
22.30
27.01
30.98
34.89
39.35
44.48
49.76
54.21
56.89
57.40
56.13
53.99
51.97
50.56
49.51
48.01
45.23
40.81
35.10
28.97
23.44
19.16
16.33
14.70
13.97
13.92
14.53
15.84
17.80
20.07
22.17
23.65
24.29
24.22
23.80
23.44
23.36
23.52
23.64
23.40
22.71
21.72
20.86
20.52
20.82
21.62
22.60
23.55
24.58
26.16
28.81
32.85
38.21
44.45
51.09
57.87
64.79
71.76
78.24
82.98
84.23
80.45
70.93
56.15
37.64
17.37
-2.89
-21.93
-39.09
-53.98
-66.27
-75.68
-82.15
-86.01
-87.87
-88.45
-88.40
-88.16
-88.06
-88.33
-89.07
-90.09
-90.89
-90.87
-89.61
-87.18
-84.11
-81.00
-78.06
-74.87
-70.59
-64.50
-56.60
-47.71
-39.13
-32.01
-26.73
-22.87
-19.49
-15.78
-11.37
-6.32
-0.88
4.88
11.09
18.01
25.70
33.84
41.82
48.97
54.87
59.49
63.09
66.00
68.35
70.02
70.68
69.98
67.75
64.05
59.25
53.93
48.66
43.86
39.58
35.43
30.79
25.09
18.15
10.37
2.67
-3.89
-8.53
-10.94
-11.29
-9.98
-7.39
-3.85
0.32
4.74
8.88
12.27
14.62
15.83
16.00
15.32
13.92
11.89
9.33
6.40
3.37
0.59
-1.63
-3.02
-3.46
-2.89
-1.34
1.14
4.55
8.83
13.78
19.03
24.03
28.20
31.19
33.02
34.17
35.28
36.89
39.17
41.86
44.47
46.55
47.95
48.85
49.67
50.88
52.74
55.24
58.10
60.80
62.55
62.36
59.11
51.85
40.11
24.35
5.99
-12.85
-30.09
-44.37
-55.50
-64.27
-71.89
-79.21
-86.31
-92.47
-96.71
-98.46
-97.85
-95.66
-92.91
-90.37
-88.39
-87.07
-86.42
-86.64
-87.87
-89.88
-91.89
-92.68
-91.08
-86.61
-79.62
-71.07
-61.94
-52.59
-42.59
-31.08
-17.36
-1.35
16.23
34.16
51.10
65.96
78.02
86.98
92.87
95.88
96.40
94.79
91.40
86.61
80.86
74.73
68.88
63.88
60.00
57.04
54.41
51.31
47.09
41.40
34.30
26.17
17.45
8.58
-0.12
-8.36
-15.87
-22.31
-27.40
-31.00
-33.23
-34.51
-35.27
-35.89
-36.43
-36.70
-36.41
-35.36
-33.56
-31.20
-28.49
-25.47
-22.04
-17.98
-13.21
-7.84
-2.20
3.28
8.20
12.30
15.53
17.93
19.65
20.77
21.33
21.34
20.86
20.06
19.27
18.87
19.11
20.03
21.38
22.70
23.53
23.66
23.18
22.46
22.01
22.20
23.09
24.49
26.01
27.26
28.03
28.27
28.03
27.40
26.46
25.29
24.07
23.08
22.57
22.68
23.26
23.90
24.11
23.44
21.70
18.85
14.88
9.70
3.03
-5.45
-15.92
-28.20
-41.77
-55.81
-69.46
-82.05
-93.23
-103.03
-111.80
-119.99
-127.92
-135.60
-142.69
-148.62
-152.88
-155.08
-154.97
-152.24
-146.46
-137.15
-124.08
-107.51
-88.26
-67.49
-46.30
-25.45
-5.15
14.69
34.25
53.39
71.53
87.59
100.27
108.37
111.25
109.15
103.23
95.25
86.89
79.27
72.71
66.99
61.83
57.26
53.68
51.53
50.84
51.02
51.02
49.81
46.83
42.23
36.79
31.54
27.36
24.67
23.34
22.83
22.37
21.20
18.85
15.22
10.67
5.88
1.66
-1.26
-2.49
-1.98
-0.04
2.85
6.18
9.53
12.60
15.23
17.34
18.93
20.13
21.06
21.85
22.49
22.86
22.87
22.63
22.49
22.94
24.39
26.84
29.90
32.85
34.96
35.80
35.29
33.61
31.01
27.73
24.00
20.21
16.97
14.99
14.79
16.55
19.94
24.34
29.09
33.72
37.99
41.75
44.74
46.42
45.95
42.41
35.18
24.42
11.14
-2.85
-15.58
-25.67
-32.80
-37.84
-42.32
-47.66
-54.51
-62.48
-70.44
-77.07
-81.54
-83.68
-83.89
-82.86
-81.18
-79.28
-77.43
-75.82
-74.63
-74.05
-74.23
-75.22
-76.89
-78.89
-80.71
-81.74
-81.38
-79.26
-75.39
-70.14
-64.10
-57.83
-51.58
-45.24
-38.54
-31.30
-23.72
-16.30
-9.60
-3.95
0.64
4.42
7.48
9.66
10.50
9.65
7.21
3.87
0.74
-1.11
-1.15
0.48
3.06
5.81
8.21
10.19
12.07
14.19
16.67
19.32
21.73
23.53
24.53
24.82
24.67
24.39
24.22
24.27
24.57
25.10
25.83
26.70
27.61
28.47
29.12
29.43
29.29
28.62
27.49
26.04
24.56
23.33
22.59
22.38
22.58
22.86
22.84
22.19
20.73
18.59
16.15
13.94
12.41
11.73
11.72
11.97
12.07
11.81
11.28
10.73
10.43
10.55
11.15
12.20
13.69
15.63
17.93
20.36
22.59
24.28
25.28
25.73
25.98
26.34
26.99
27.71
28.13
27.83
26.64
24.80
22.87
21.50
21.07
21.54
22.41
22.92
22.39
20.53
17.52
14.01
10.79
8.55
7.62
7.86
8.64
9.08
8.35
6.03
2.36
-1.86
-5.56
-7.93
-8.75
-8.46
-7.90
-7.87
-8.74
-10.31
-12.08
-13.57
-14.71
-15.81
-17.42
-20.03
-23.78
-28.25
-32.64
-35.98
-37.53
-37.13
-35.33
-33.14
-31.65
-31.58
-32.97
-35.30
-37.81
-39.94
-41.53
-42.81
-44.11
-45.60
-47.06
-48.19
-48.66
-48.41
-47.70
-47.00
-46.76
-47.31
-48.77
-51.06
-54.02
-57.34
-60.60
-63.15
-64.23
-63.26
-60.11
-55.22
-49.38
-43.26
-37.00
-30.09
-21.76
-11.56
0.16
12.29
23.45
32.66
39.71
45.06
49.35
52.82
55.27
56.29
55.78
54.21
52.49
51.50
51.64
52.62
53.59
53.51
51.59
47.51
41.41
33.85
25.64
17.74
11.12
6.46
4.06
3.64
4.52
5.87
7.07
7.86
8.31
8.55
8.66
8.52
8.03
7.27
6.62
6.62
7.77
10.19
13.58
17.26
20.37
22.16
22.22
20.68
18.18
15.81
14.73
15.90
19.64
25.46
32.09
37.91
41.39
41.61
38.51
32.82
25.82
18.87
13.05
8.96
6.64
5.74
5.71
5.99
6.05
5.46
3.91
1.26
-2.37
-6.58
-10.68
-13.95
-15.89
-16.47
-16.17
-15.67
-15.49
-15.76
-16.17
-16.35
-16.16
-15.86
-15.91
-16.60
-17.68
-18.47
-18.14
-16.26
-13.02
-9.20
-5.61
-2.75
-0.47
1.76
4.38
7.41
10.25
11.98
11.76
9.23
4.65
-1.18
-7.17
-12.35
-15.96
-17.69
-17.66
-16.36
-14.44
-12.56
-11.20
-10.61
-10.75
-11.32
-11.88
-11.91
-10.91
-8.62
-5.07
-0.68
3.78
7.39
9.38
9.31
7.21
3.57
-0.94
-5.60
-9.87
-13.50
-16.41
-18.67
-20.42
-21.88
-23.35
-25.29
-28.22
-32.60
-38.63
-46.04
-54.11
-61.87
-68.41
-73.15
-75.90
-76.71
-75.74
-73.06
-68.68
-62.73
-55.62
-47.95
-40.34
-33.12
-26.11
-18.76
-10.45
-0.84
9.84
20.89
31.33
40.18
46.78
50.89
52.75
52.97
52.44
52.00
52.27
53.47
55.43
57.78
60.11
62.23
64.08
65.73
67.25
68.58
69.55
69.91
69.40
67.70
64.56
59.82
53.70
46.81
40.29
35.47
33.46
34.67
38.47
43.35
47.37
48.92
47.24
42.66
36.35
29.76
24.04
19.72
16.81
14.95
13.75
12.91
12.19
11.36
10.14
8.27
5.69
2.53
-0.93
-4.45
-7.96
-11.58
-15.43
-19.46
-23.26
-26.19
-27.52
-26.81
-24.06
-19.70
-14.55
-9.51
-5.37
-2.63
-1.34
-1.17
-1.50
-1.63
-1.10
0.18
1.92
3.66
4.96
5.63
5.75
5.49
4.95
4.01
2.39
-0.25
-4.16
-9.34
-15.49
-22.09
-28.47
-33.98
-38.05
-40.34
-40.76
-39.61
-37.53
-35.40
-34.11
-34.31
-36.23
-39.69
-44.27
-49.54
-55.24
-61.19
-67.21
-72.92
-77.82
-81.40
-83.33
-83.64
-82.54
-80.39
-77.49
-74.15
-70.64
-67.16
-63.82
-60.37
-56.28
-50.87
-43.69
-34.86
-25.17
-15.82
-7.92
-2.07
1.88
4.80
7.81
11.95
17.80
25.45
34.52
44.34
54.06
62.84
69.97
74.96
77.67
78.26
77.14
74.81
71.78
68.39
64.80
60.95
56.67
51.80
46.24
40.08
33.51
26.87
20.47
14.60
9.39
4.74
0.40
-3.97
-8.55
-13.23
-17.49
-20.63
-21.92
-21.04
-18.16
-13.88
-8.86
-3.58
1.86
7.69
14.06
20.91
27.86
34.44
40.41
45.89
51.08
55.96
59.98
62.17
61.59
57.82
51.27
43.06
34.48
26.51
19.55
13.49
8.08
3.23
-0.93
-4.23
-6.59
-8.20
-9.33
-10.27
-11.22
-12.30
-13.56
-15.01
-16.64
-18.31
-19.86
-21.14
-22.16
-23.09
-24.26
-25.90
-28.02
-30.37
-32.49
-33.91
-34.35
-33.68
-31.89
-28.95
-24.78
-19.39
-12.96
-5.97
0.88
6.88
11.50
14.53
16.21
17.01
17.52
18.14
19.04
20.14
21.17
21.91
22.30
22.47
22.66
23.05
23.73
24.62
25.64
26.70
27.75
28.72
29.50
29.96
29.99
29.61
28.92
28.07
27.12
26.08
24.90
23.56
22.15
20.77
19.52
18.39
17.24
15.91
14.30
12.30
9.88
6.94
3.42
-0.69
-5.21
-9.74
-13.71
-16.58
-17.99
-17.98
-16.93
-15.48
-14.32
-14.06
-15.04
-17.27
-20.52
-24.37
-28.40
-32.41
-36.49
-41.04
-46.52
-53.17
-60.75
-68.50
-75.33
-80.17
-82.31
-81.53
-78.07
-72.44
-65.36
-57.60
-50.02
-43.37
-38.17
-34.44
-31.66
-28.96
-25.49
-20.81
-15.02
-8.69
-2.50
3.05
7.84
11.99
15.71
19.02
21.73
23.50
24.06
23.33
21.44
18.57
14.91
10.58
5.88
1.44
-1.73
-2.51
-0.15
5.23
12.60
20.38
27.22
32.55
36.79
40.88
45.54
50.80
55.83
59.38
60.47
58.82
55.00
50.04
44.95
40.37
36.43
32.88
29.24
24.94
19.41
12.19
3.09
-7.57
-18.92
-29.60
-38.18
-43.58
-45.51
-44.57
-42.12
-39.79
-39.04
-40.53
-43.78
-47.18
-48.41
-45.15
-36.08
-21.41
-2.97
16.39
33.90
47.83
57.96
65.29
71.21
76.59
81.30
84.32
84.41
81.07
75.11
68.57
63.96
63.27
67.09
74.51
83.34
91.05
95.60
95.88
91.76
83.67
72.21
57.90
41.31
22.78
2.61
-18.92
-41.62
-65.38
-90.13
-115.78
-142.03
-166.07
-183.97
-191.57
-186.46
-169.44
-144.14
-115.22
-86.40
-59.57
-34.91
-12.21
8.51
26.71
41.63
53.02
61.57
68.74
76.11
84.54
93.45
101.21
105.78
105.58
100.21
90.58
78.46
66.01
55.16
46.87
41.49
38.69
37.86
38.43
40.17
43.06
47.11
54.04
63.82
75.30
86.55
95.32
99.65
98.08
89.77
74.61
53.37
27.70
0.68
-23.79
-42.21
-52.85
-56.71
-57.16
-58.63
-64.72
-77.09
-94.88
-115.50
-135.82
-153.13
-165.50
-171.59
-170.61
-162.48
-148.34
-130.47
-111.91
-95.54
-83.27
-75.45
-70.92
-67.43
-62.46
-53.96
-41.09
-24.80
-8.10
4.35
7.57
-1.78
-23.58
-53.78
-85.46
-111.37
-126.68
-130.58
-125.73
-115.98
-103.96
-89.61
-70.90
-46.03
-15.62
16.63
45.28
65.75
76.68
80.29
81.01
82.78
87.11
92.69
96.64
96.70
92.57
85.86
78.79
72.80
67.70
62.36
55.97
49.15
43.76
41.46
42.14
43.39
41.67
34.51
22.45
9.28
0.11
-1.31
5.03
15.40
24.36
27.62
24.04
15.53
5.47
-3.30
-9.46
-12.93
-14.06
-13.25
-11.16
-9.14
-9.04
-12.39
-19.29
-27.89
-35.07
-37.97
-35.62
-29.45
-22.44
-17.59
-16.42
-18.54
-22.34
-26.08
-28.45
-28.83
-26.77
-21.48
-11.99
2.41
21.24
42.40
62.55
78.27
87.44
90.12
88.17
83.94
78.83
72.40
62.53
46.42
21.85
-11.72
-52.50
-96.25
-136.75
-166.92
-180.60
-174.55
-149.70
-111.12
-66.49
-23.59
12.00
37.92
54.71
64.68
70.49
74.27
77.12
79.09
79.41
76.95
70.82
60.94
48.17
34.07
20.32
8.00
-2.48
-11.29
-18.70
-25.03
-30.63
-36.09
-42.10
-49.01
-56.28
-62.22
-64.37
-60.44
-49.39
-31.91
-10.46
11.65
30.97
44.54
50.17
46.49
33.17
11.25
-16.48
-45.65
-71.03
-87.81
-93.08
-86.77
-71.95
-53.89
-38.40
-29.65
-28.82
-33.85
-40.64
-45.13
-45.09
-40.73
-33.95
-26.84
-20.43
-14.54
-8.50
-2.29
3.04
5.98
5.54
2.19
-2.13
-5.07
-5.02
-1.81
3.37
8.69
12.55
13.99
12.91
9.89
5.96
2.33
0.03
-0.41
0.76
2.59
3.75
3.11
0.33
-4.07
-8.78
-12.10
-12.45
-8.76
-0.79
10.58
23.51
35.64
44.97
50.45
52.27
51.50
49.34
46.61
43.53
40.13
36.53
32.96
29.27
24.41
16.37
2.86
-17.25
-42.70
-69.61
-92.92
-108.67
-116.03
-117.78
-118.84
-123.65
-133.59
-146.17
-155.98
-157.03
-145.08
-119.11
-81.66
-38.30
3.45
35.77
52.46
51.08
34.38
10.10
-11.37
-20.65
-12.81
10.97
44.43
78.88
106.25
121.01
120.60
104.74
74.91
34.55
-10.66
-53.14
-85.18
-101.44
-101.17
-88.63
-71.22
-56.20
-47.77
-45.95
-47.57
-48.58
-46.13
-39.42
-29.18
-16.60
-2.64
11.99
26.49
39.50
49.26
54.21
53.43
47.06
36.35
23.20
9.86
-1.56
-9.46
-12.99
-12.12
-7.57
-0.54
7.92
17.27
27.86
40.53
55.75
72.69
88.86
100.53
104.23
98.36
84.07
65.21
47.08
34.93
32.61
41.86
62.12
90.74
123.48
155.28
181.55
199.25
207.65
207.90
201.83
190.69
174.78
154.13
129.65
103.77
79.87
60.82
47.63
39.18
33.12
27.44
21.59
16.44
13.35
12.87
14.24
15.86
16.57
16.96
19.71
28.93
48.21
78.55
117.01
156.88
189.82
208.96
211.75
200.98
183.46
166.98
157.26
156.39
163.10
174.35
186.89
198.03
205.48
207.06
200.90
186.25
164.33
138.42
113.04
92.58
79.97
76.09
79.99
89.54
102.06
115.03
126.37
134.70
139.46
140.84
139.42
135.84
130.53
123.54
114.71
103.94
91.52
78.22
65.15
53.39
43.46
35.06
27.00
17.52
4.98
-11.56
-31.89
-54.75
-78.44
-101.66
-124.31
-147.67
-173.99
-205.50
-243.33
-286.86
-333.62
-380.13
-423.10
-460.65
-493.03
-522.76
-554.01
-591.28
-637.41
-691.61
-748.39
-798.37
-830.64
-836.10
-810.52
-756.44
-683.08
-604.18
-534.26
-484.54
-459.69
-456.67
-466.14
-475.90
-475.38
-459.05
-427.58
-386.20
-341.34
-297.45
-255.45
-213.77
-170.15
-123.41
-73.72
-21.70
32.15
87.27
141.84
191.85
231.22
253.77
256.14
239.76
211.08
179.34
153.46
139.23
138.40
149.18
167.72
189.46
210.04
225.89
234.94
237.39
235.95
235.08
239.43
252.02
273.43
301.83
334.17
367.31
398.69
426.22
447.91
461.78
466.27
460.97
446.88
426.07
400.78
372.70
342.73
311.47
279.80
249.04
220.53
194.74
170.70
146.29
119.09
87.56
51.76
13.12
-26.21
-64.28
-99.84
-132.51
-162.65
-191.03
-218.54
-245.78
-272.65
-297.93
-319.28
-333.49
-337.24
-328.09
-305.24
-270.05
-225.96
-178.07
-132.38
-94.93
-70.78
-63.08
-72.28
-95.84
-128.58
-163.58
-193.59
-212.61
-217.08
-206.37
-182.46
-148.87
-109.33
-66.83
-23.09
21.44
67.30
115.50
166.75
220.40
273.56
321.03
356.42
374.21
372.03
351.92
319.85
283.55
249.80
222.33
201.39
184.87
170.08
155.20
139.79
124.36
109.56
95.74
83.18
72.53
64.97
61.94
64.07
70.29
77.42
80.90
76.45
62.02
39.10
12.54
-11.05
-25.79
-28.89
-21.80
-9.69
0.66
3.74
-2.35
-15.29
-29.63
-39.22
-39.80
-30.70
-14.95
2.08
14.60
18.27
11.53
-4.35
-26.06
-49.51
-71.14
-88.84
-101.90
-110.67
-115.92
-118.40
-118.87
-118.39
-118.40
-120.36
-124.94
-131.52
-138.18
-142.54
-142.76
-138.14
-129.27
-117.38
-103.65
-88.67
-72.45
-54.74
-35.36
-14.54
7.00
28.21
48.01
65.53
80.33
92.39
101.90
108.97
113.46
114.92
113.03
107.92
100.43
91.78
82.90
73.94
64.27
53.04
39.92
25.55
11.42
-0.91
-10.54
-17.52
-22.52
-26.33
-29.40
-31.92
-34.13
-36.50
-39.85
-44.91
-51.84
-59.65
-66.23
-68.88
-65.65
-56.64
-44.52
-34.59
-33.62
-47.99
-81.47
-133.47
-198.21
-265.51
-322.91
-358.12
-362.35
-332.22
-270.21
-183.58
-82.72
20.70
115.27
191.65
245.62
277.49
291.53
294.18
291.75
288.42
285.24
280.71
272.95
263.71
256.00
252.82
255.13
261.65
269.69
276.55
280.13
279.35
277.33
277.53
282.46
292.69
307.04
323.02
337.54
347.33
335.90
296.15
231.51
154.34
77.07
4.88
-63.90
-132.17
-198.67
-262.04
-315.12
-351.51
-369.04
-370.56
-361.61
-347.71
-330.02
-311.52
-296.95
-290.00
-294.67
-313.13
-343.46
-378.59
-407.69
-420.08
-410.63
-381.42
-339.10
-293.03
-251.23
-218.09
-193.85
-175.65
-159.41
-141.71
-119.87
-91.36
-54.97
-11.12
37.06
84.54
126.50
160.47
186.80
208.30
228.59
250.18
274.76
302.23
331.54
361.29
390.12
416.56
439.16
456.58
467.63
472.52
471.18
462.92
446.90
423.14
393.13
359.99
327.40
288.92
242.30
189.42
135.64
86.42
43.62
3.86
-39.16
-90.66
-152.07
-219.02
-282.62
-333.68
-367.06
-383.69
-390.46
-396.97
-411.54
-431.44
-450.30
-459.13
-449.90
-418.85
-367.82
-304.34
-238.90
-182.11
-141.90
-122.33
-123.08
-140.71
-169.62
-197.61
-212.22
-204.01
-170.96
-118.81
-57.70
3.24
57.90
102.90
136.90
159.16
170.13
171.83
167.74
161.55
156.44
153.58
152.11
150.08
145.17
136.12
123.31
108.73
94.75
83.58
76.23
72.48
71.53
72.40
74.45
77.34
81.24
85.37
88.30
87.98
82.23
69.21
47.60
17.22
-20.34
-60.67
-96.97
-121.99
-130.58
-121.77
-99.61
-71.79
-46.55
-29.36
-21.49
-20.72
-23.34
-26.60
-29.71
-33.32
-38.11
-43.81
-48.95
-52.12
-53.09
-52.89
-53.46
-56.58
-62.77
-70.64
-77.81
-80.47
-75.72
-62.51
-41.89
-16.68
9.60
33.81
54.13
70.27
83.06
93.38
101.40
106.56
107.66
103.86
95.14
82.94
69.83
58.72
51.82
50.30
54.47
63.55
75.32
85.82
89.68
81.77
59.18
23.05
-20.98
-64.20
-97.54
-114.38
-113.92
-100.39
-79.94
-57.71
-36.37
-16.61
1.43
17.03
28.70
35.29
36.85
35.06
32.36
31.18
32.73
36.82
42.29
47.46
51.23
53.50
55.06
56.90
59.72
63.26
66.33
67.71
65.67
59.51
50.09
39.19
28.86
20.89
16.12
14.49
15.23
17.18
19.51
21.74
23.38
23.79
21.78
15.83
4.56
-11.79
-32.57
-55.72
-78.30
-97.68
-112.03
-121.00
-125.56
-127.28
-127.71
-128.50
-130.84
-135.23
-140.85
-144.91
-142.98
-130.73
-106.05
-70.60
-30.30
7.16
35.21
51.00
55.96
54.22
50.06
46.03
42.50
38.65
34.04
29.30
25.80
24.60
25.58
27.51
28.77
27.92
24.63
19.70
14.53
10.36
8.01
7.28
7.19
6.53
4.39
0.57
-4.43
-9.70
-14.33
-17.85
-20.41
-22.63
-25.24
-28.84
-33.62
-39.39
-45.73
-52.14
-58.20
-63.78
-68.82
-73.26
-76.94
-79.59
-80.76
-80.04
-77.42
-72.66
-65.95
-57.69
-48.45
-38.83
-29.42
-20.56
-12.38
-4.74
2.78
10.49
18.73
27.52
36.60
45.45
53.46
60.12
65.16
68.66
70.74
71.74
71.64
70.23
67.14
62.20
55.63
48.13
40.79
34.60
30.33
27.85
26.11
23.67
19.34
12.79
4.78
-3.01
-8.76
-10.78
-8.76
-3.73
2.75
9.31
15.50
21.88
29.75
40.52
55.89
76.78
103.10
133.26
163.55
188.30
200.91
196.34
169.98
125.58
72.95
23.99
-11.81
-30.63
-34.11
-27.24
-14.97
-0.52
15.15
31.59
47.58
61.29
71.06
76.57
78.73
79.20
80.09
81.43
81.34
76.81
65.07
45.04
18.02
-13.00
-43.72
-70.02
-88.92
-99.16
-101.32
-97.00
-88.01
-76.12
-63.86
-53.55
-48.12
-50.88
-65.13
-94.24
-141.03
-206.94
-291.04
-390.41
-494.06
-587.71
-656.42
-688.50
-678.69
-629.25
-548.18
-439.09
-310.83
-173.51
-37.45
88.02
195.22
278.89
336.81
370.27
383.54
381.39
369.26
351.47
330.97
309.17
286.68
263.84
241.22
219.56
198.94
179.91
162.86
148.02
135.13
123.74
113.12
102.62
91.91
80.58
69.14
58.62
50.23
44.66
41.84
40.68
39.40
36.38
30.63
22.83
15.03
9.88
9.18
13.17
19.97
26.21
28.78
25.98
18.75
10.28
4.56
4.71
12.02
25.36
41.58
56.26
64.43
61.77
45.90
18.59
-16.41
-51.62
-78.56
-91.19
-88.62
-75.99
-62.55
-57.59
-65.81
-84.66
-105.07
-115.46
-108.67
-85.95
-56.36
-31.95
-21.56
-26.50
-40.34
-52.87
-55.68
-46.07
-27.47
-6.44
11.23
22.94
29.74
34.96
40.85
47.51
52.50
52.23
43.72
26.68
3.94
-19.42
-38.11
-48.72
-50.35
-44.04
-31.29
-13.53
7.50
28.75
45.39
52.24
46.46
29.34
6.15
-16.13
-31.92
-39.21
-39.46
-35.79
-30.71
-25.08
-18.58
-11.06
-3.50
2.29
4.70
3.37
-0.38
-4.23
-5.98
-4.52
-0.23
5.25
10.00
12.60
12.87
11.83
11.26
12.88
17.59
25.27
34.81
44.62
53.18
59.54
63.22
64.20
62.35
57.50
49.16
36.92
20.82
1.65
-18.99
-39.01
-56.32
-69.44
-77.70
-81.34
-81.24
-78.40
-73.52
-66.99
-59.00
-49.87
-40.45
-31.86
-25.47
-22.37
-22.80
-25.92
-30.06
-33.40
-34.61
-33.39
-30.34
-26.71
-23.95
-23.30
-25.80
-32.08
-41.84
-52.33
-60.60
-62.39
-54.36
-36.08
-10.81
15.49
36.60
48.71
51.64
48.04
41.82
35.71
30.54
25.75
20.61
15.20
10.45
7.26
5.60
4.56
2.52
-1.75
-8.49
-16.51
-23.80
-28.28
-28.80
-25.31
-18.80
-10.88
-2.87
4.70
12.17
20.41
30.10
41.14
52.46
62.50
69.85
73.96
75.37
75.39
75.66
77.25
80.28
83.88
86.33
85.53
79.55
67.26
48.81
25.94
1.31
-22.51
-44.20
-64.11
-83.95
-105.74
-130.53
-157.42
-182.74
-201.04
-206.63
-195.81
-168.73
-129.84
-86.85
-48.60
-22.23
-10.11
-10.28
-17.62
-26.52
-32.81
-34.67
-32.54
-28.16
-23.23
-16.89
-9.30
-0.37
9.26
18.56
26.68
33.67
40.52
48.87
62.10
82.00
107.87
136.51
164.25
189.22
212.14
235.17
247.96
242.62
216.43
175.08
128.82
87.27
56.22
36.69
25.39
16.68
7.46
-2.84
-12.12
-18.12
-20.60
-22.00
-26.40
-37.02
-53.84
-71.56
-83.28
-83.78
-72.13
-51.52
-26.75
-1.98
20.25
38.27
52.38
60.38
60.30
51.48
35.71
17.13
0.41
-11.21
-17.18
-18.77
-18.27
-17.24
-16.12
-14.42
-11.48
-7.24
-2.56
1.32
3.65
4.41
4.54
5.26
7.28
10.54
14.16
16.75
16.99
13.94
7.84
-0.42
-9.52
-17.84
-23.83
-26.37
-25.07
-20.46
-13.82
-6.76
-0.72
3.35
4.94
3.76
-0.37
-7.42
-16.82
-27.36
-37.32
-45.02
-49.41
-50.33
-48.35
-44.41
-39.23
-33.19
-26.36
-18.87
-11.07
-3.46
3.48
9.47
14.48
18.80
22.83
26.96
31.43
36.23
41.13
45.75
49.70
52.69
54.68
55.86
56.54
57.01
57.31
57.26
56.56
55.01
52.68
49.90
47.01
44.09
40.87
36.75
31.25
24.30
16.35
8.24
0.79
-5.52
-10.71
-15.12
-19.15
-22.88
-26.15
-28.58
-29.99
-30.52
-30.70
-31.28
-32.95
-36.04
-40.33
-45.11
-49.39
-52.12
-52.45
-50.03
-44.95
-37.83
-29.59
-21.24
-13.64
-7.17
-1.51
4.34
11.98
23.04
38.47
57.92
79.47
99.94
115.75
124.04
123.57
115.21
101.58
86.01
71.15
57.99
45.62
31.97
14.94
-6.38
-31.28
-57.78
-83.63
-107.19
-128.00
-146.66
-164.39
-182.37
-201.33
-221.37
-241.83
-261.20
-277.11
-286.68
-286.86
-275.12
-250.00
-211.64
-162.18
-105.88
-48.61
3.09
43.42
68.77
78.53
75.23
63.49
48.53
34.83
25.20
20.75
21.34
26.05
33.46
41.42
47.18
47.70
40.66
25.57
4.47
-18.39
-37.92
-50.07
-53.15
-48.27
-38.37
-26.80
-16.04
-7.04
0.50
7.39
14.27
21.23
27.85
33.48
37.53
39.71
40.07
38.85
36.36
32.90
28.81
24.68
21.34
19.84
21.11
25.51
32.62
41.19
49.53
56.05
59.69
60.12
57.67
53.02
47.03
40.57
34.50
29.72
27.01
26.85
29.24
33.58
38.69
42.98
44.73
42.47
35.40
23.72
8.88
-6.58
-19.55
-27.31
-28.45
-23.54
-14.96
-6.09
-0.14
0.94
-3.08
-10.99
-20.81
-30.68
-39.26
-45.82
-49.93
-51.23
-49.26
-43.73
-34.81
-23.35
-10.83
1.07
10.92
17.96
22.23
24.35
25.13
25.12
24.50
23.12
20.80
17.55
13.68
9.74
6.38
4.23
3.77
5.21
8.54
13.58
19.93
27.01
34.20
41.00
47.04
52.01
55.39
56.73
55.78
52.78
48.39
43.47
38.77
34.59
30.67
26.14
20.22
12.79
4.50
-3.47
-9.71
-12.96
-12.39
-7.92
-0.82
7.48
15.93
23.53
28.75
29.28
22.62
7.16
-16.66
-47.43
-81.02
-111.81
-135.25
-150.00
-157.75
-161.18
-161.88
-159.64
-155.56
-150.06
-143.19
-135.48
-128.37
-123.10
-119.45
-115.81
-110.46
-105.95
-104.78
-107.42
-112.35
-117.50
-120.80
-120.47
-115.35
-86.14
-29.12
41.92
106.07
150.21
171.78
174.43
164.11
147.51
131.26
117.63
108.36
105.56
110.68
122.41
136.89
148.68
152.89
146.88
129.20
102.88
75.11
53.50
40.67
36.16
36.34
37.25
36.86
34.18
30.11
26.66
25.21
25.71
27.55
30.31
34.33
40.13
46.81
52.33
54.81
53.03
46.59
36.01
21.95
5.00
-14.78
-34.68
-52.77
-66.67
-74.22
-74.38
-67.82
-56.88
-44.47
-32.97
-23.45
-16.44
-12.16
-11.30
-15.08
-24.41
-38.96
-56.64
-73.99
-87.50
-95.29
-97.36
-95.17
-90.49
-84.32
-76.45
-65.98
-52.12
-34.74
-14.63
7.33
30.57
54.95
80.27
105.75
129.87
150.51
165.82
174.65
176.99
173.62
165.55
153.88
140.02
126.19
115.49
111.06
114.57
125.13
139.11
151.70
159.19
160.75
158.60
156.00
154.57
152.34
144.07
123.41
85.92
30.83
-39.27
-120.20
-207.87
-298.54
-387.89
-469.56
-535.15
-576.46
-588.56
-571.81
-531.21
-473.61
-404.17
-324.81
-235.60
-137.59
-36.11
58.85
135.21
183.09
197.60
179.23
132.02
61.43
-25.65
-121.23
-215.78
-298.94
-361.53
-398.28
-409.56
-400.91
-380.22
-352.41
-320.14
-284.89
-248.62
-214.07
-184.28
-161.50
-146.42
-137.73
-128.36
-112.00
-86.13
-52.59
-14.99
24.19
64.53
107.35
154.68
214.95
293.66
389.97
496.48
603.42
702.20
786.08
849.75
889.50
912.53
926.74
936.82
942.74
943.28
938.93
931.53
922.60
860.38
718.06
506.93
272.07
58.72
-110.26
-232.30
-314.57
-366.93
-398.80
-409.02
-396.46
-364.45
-322.39
-282.07
-253.13
-241.42
-248.67
-272.54
-300.67
-321.04
-324.72
-310.45
-283.70
-251.86
-220.80
-193.43
-170.14
-145.78
-116.81
-83.61
-50.79
-23.87
-6.49
1.00
0.99
-3.07
-5.83
-3.90
3.39
13.99
23.93
29.88
30.22
24.65
13.07
-2.30
-20.89
-43.29
-65.07
-82.48
-93.62
-99.35
-101.60
-101.68
-99.80
-95.93
-90.01
-82.25
-73.99
-66.55
-60.64
-56.09
-52.19
-48.09
-43.35
-37.77
-31.55
-25.76
-21.50
-19.37
-19.16
-20.01
-20.85
-20.94
-19.82
-17.71
-15.67
-14.95
-16.31
-19.65
-24.01
-28.04
-30.68
-31.34
-30.60
-29.93
-31.02
-34.91
-41.47
-49.33
-56.60
-61.92
-64.67
-65.80
-67.20
-70.78
-77.69
-88.17
-101.48
-116.27
-131.42
-142.52
-145.03
-134.94
-110.34
-72.65
-26.92
20.28
62.76
97.03
123.19
143.38
160.07
173.97
183.37
185.29
177.92
162.01
141.43
121.87
107.79
100.69
98.41
96.24
88.60
73.77
53.10
30.22
9.02
-8.66
-23.22
-36.41
-49.47
-62.29
-73.21
-80.40
-83.15
-81.43
-76.91
-71.61
-67.28
-64.50
-62.86
-61.17
-58.43
-54.16
-48.75
-43.45
-39.73
-38.80
-40.93
-45.72
-52.26
-59.58
-66.88
-73.74
-80.12
-86.20
-92.23
-97.90
-103.06
-107.46
-110.99
-113.61
-115.44
-116.66
-117.56
-118.53
-119.47
-120.41
-121.35
-122.17
-122.49
-121.62
-118.58
-111.97
-103.98
-95.39
-86.85
-78.69
-70.90
-63.02
-54.26
-43.75
-30.89
-15.71
1.71
20.60
39.88
58.69
76.55
93.67
110.80
128.98
149.05
171.58
195.85
219.77
240.32
254.40
259.91
256.58
246.24
232.18
218.35
207.60
200.77
196.74
193.14
187.75
179.62
169.86
161.45
158.64
165.41
184.16
214.58
253.43
295.55
335.31
368.43
393.05
409.95
421.38
429.62
435.72
439.34
439.27
434.26
423.69
407.43
385.52
357.52
322.63
280.06
229.65
172.49
110.64
46.36
-18.85
-84.58
-150.90
-217.10
-280.86
-338.66
-387.53
-426.67
-457.76
-483.64
-505.84
-522.73
-529.98
-523.02
-500.45
-465.78
-426.56
-391.29
-365.95
-351.91
-346.19
-343.44
-338.50
-328.16
-311.62
-290.04
-265.01
-237.43
-207.00
-172.59
-133.45
-90.41
-46.31
-5.28
28.91
54.48
72.28
85.14
96.20
107.20
117.94
126.71
131.50
131.27
126.48
118.72
109.82
100.97
92.32
83.07
72.20
59.19
44.41
29.09
14.79
2.95
-5.55
-10.45
-12.02
-10.91
-7.95
-3.97
0.35
4.58
8.83
13.51
19.10
25.84
33.43
41.09
47.92
53.24
56.81
58.94
60.19
61.05
61.66
61.76
60.93
58.91
55.90
52.39
49.02
46.12
43.58
40.86
37.27
32.38
26.31
19.80
13.73
9.01
6.23
5.41
5.96
6.80
6.85
5.55
3.15
0.23
-2.45
-4.37
-5.45
-6.09
-6.79
-7.82
-9.03
-10.28
-12.39
-16.54
-23.60
-33.22
-43.79
-53.06
-59.33
-62.35
-63.67
-66.70
-74.23
-86.70
-101.73
-115.45
-124.09
-125.18
-117.31
-94.92
-55.48
-1.71
57.41
110.15
147.67
167.77
174.75
176.85
182.04
194.05
212.02
232.22
251.65
268.24
281.21
290.29
295.02
294.28
286.30
269.86
244.84
212.22
173.14
128.16
76.44
18.76
-44.30
-112.16
-183.65
-256.83
-329.00
-397.55
-460.70
-518.34
-571.57
-621.82
-668.52
-707.28
-729.91
-727.06
-692.15
-624.65
-531.17
-423.16
-313.29
-211.37
-122.05
-45.17
22.10
82.93
139.84
194.39
247.36
298.12
343.89
379.71
399.80
400.22
381.14
348.06
310.34
277.85
257.09
248.77
247.91
246.10
234.82
208.37
165.69
110.26
48.99
-9.96
-59.46
-95.17
-116.49
-125.97
-128.05
-127.00
-125.79
-125.64
-126.69
-128.90
-132.50
-137.84
-144.80
-152.41
-158.96
-162.96
-163.92
-162.72
-161.17
-160.96
-162.63
-165.19
-166.60
-164.74
-158.42
-147.64
-133.24
-116.13
-96.74
-74.94
-50.19
-22.09
9.35
43.31
78.24
112.12
142.86
168.72
188.80
203.33
213.62
222.02
230.79
241.46
254.44
269.02
283.81
297.28
308.30
316.46
322.50
327.53
332.80
339.44
347.91
357.30
364.75
365.69
354.84
328.45
284.99
226.10
156.31
81.72
8.26
-59.74
-119.93
-173.66
-219.23
-253.51
-273.53
-278.47
-270.41
-253.38
-231.76
-209.02
-187.04
-166.03
-145.96
-127.04
-109.93
-95.46
-84.18
-76.11
-70.66
-66.71
-62.67
-57.60
-51.39
-44.74
-38.60
-33.71
-30.28
-27.91
-25.85
-23.04
-18.90
-13.56
-7.66
-1.94
3.25
8.06
13.09
18.90
25.83
33.31
40.29
44.48
43.87
37.32
24.96
8.20
-11.07
-30.61
-48.86
-65.15
-79.69
-93.23
-106.85
-121.52
-137.53
-153.59
-166.41
-171.45
-164.64
-144.47
-113.19
-76.39
-40.85
-11.94
8.26
21.05
29.54
36.61
43.58
50.06
54.70
56.26
53.87
47.27
37.02
24.79
13.44
6.92
9.04
21.15
43.00
71.33
100.88
126.63
145.60
157.44
163.72
166.59
167.90
169.33
172.65
180.18
194.52
217.39
248.42
284.51
320.51
350.37
369.07
373.65
363.79
341.73
311.22
276.24
239.69
202.59
164.42
124.51
83.17
42.51
5.97
-23.20
-43.53
-56.10
-64.17
-71.75
-81.80
-95.14
-110.55
-125.46
-137.34
-144.67
-147.43
-146.89
-145.23
-145.06
-148.85
-158.00
-171.62
-185.66
-193.18
-186.09
-158.15
-107.96
-40.67
32.93
99.42
146.82
168.00
162.11
133.66
90.11
39.41
-11.89
-59.32
-100.43
-134.42
-162.27
-186.64
-211.24
-239.34
-271.67
-304.88
-331.83
-344.18
-336.26
-308.14
-265.82
-218.62
-174.89
-139.09
-111.29
-89.20
-70.68
-54.81
-41.19
-28.53
-14.45
2.93
23.01
41.91
54.34
56.96
51.29
43.85
43.20
55.45
80.94
114.55
149.05
179.55
206.12
233.07
265.18
303.36
342.34
372.00
381.71
365.01
322.53
261.25
191.18
121.08
55.82
-3.81
-59.14
-111.28
-160.13
-204.65
-244.14
-279.18
-311.47
-343.11
-375.27
-407.66
-438.74
-466.47
-489.44
-507.85
-523.73
-540.60
-561.76
-588.16
-616.76
-640.49
-650.18
-637.91
-600.25
-539.65
-463.57
-381.36
-301.05
-227.38
-161.93
-104.69
-55.62
-15.38
15.41
37.18
51.98
63.09
73.54
85.00
97.32
109.12
118.77
125.85
131.43
138.02
148.87
166.98
194.22
230.06
270.85
310.02
339.73
353.66
350.16
333.51
312.47
296.53
291.73
298.30
311.18
322.96
327.18
320.57
303.17
277.31
246.51
214.83
186.59
166.18
157.13
160.61
174.76
195.24
216.82
235.49
249.71
260.11
268.62
277.06
286.08
294.99
302.37
307.00
308.64
307.98
305.37
300.65
292.78
279.94
260.36
233.37
200.27
164.31
129.63
98.19
70.05
43.22
14.49
-19.16
-58.92
-103.10
-147.59
-187.38
-221.41
-249.84
-273.25
-291.98
-305.97
-314.99
-318.77
-317.22
-310.87
-305.59
-306.19
-314.81
-330.76
-352.17
-377.75
-407.58
-442.62
-483.12
-533.23
-591.35
-649.03
-693.73
-714.58
-707.44
-676.09
-629.84
-546.05
-421.25
-269.05
-114.55
19.98
124.09
197.43
244.75
270.03
283.06
285.83
280.08
268.92
256.70
247.44
243.53
245.41
252.25
263.36
273.07
277.46
275.23
263.81
241.89
209.61
169.06
123.97
78.80
34.01
-10.06
-52.42
-91.26
-125.56
-154.60
-178.36
-197.19
-211.34
-222.59
-231.97
-239.37
-243.96
-244.70
-240.82
-232.27
-219.57
-203.44
-185.33
-166.43
-147.49
-128.87
-110.42
-91.63
-72.00
-51.07
-28.60
-4.72
20.00
44.63
67.95
88.96
107.19
122.73
136.10
148.07
159.26
169.87
179.66
188.17
195.16
200.94
206.39
212.78
221.48
233.71
250.37
271.69
296.83
323.50
347.91
365.50
372.37
366.78
349.97
325.76
298.98
273.58
251.33
231.68
212.80
192.96
171.63
149.55
128.16
108.68
91.60
76.63
63.11
50.47
38.54
27.59
18.08
10.31
4.20
-0.69
-4.98
-9.01
-12.69
-15.59
-17.25
-17.58
-17.07
-16.67
-17.39
-19.75
-23.57
-28.01
-31.98
-34.57
-35.44
-34.86
-33.44
-31.87
-30.58
-29.77
-29.37
-29.27
-29.32
-29.37
-29.28
-28.90
-28.12
-27.00
-25.88
-25.20
-25.28
-26.14
-27.37
-28.32
-28.35
-27.16
-24.92
-22.13
-19.35
-16.87
-14.58
-12.10
-9.02
-5.16
-0.58
4.43
9.50
14.28
18.51
22.05
24.90
26.97
28.41
29.61
31.24
34.13
38.95
45.95
54.92
65.22
75.88
86.30
96.40
106.74
118.14
131.20
146.05
162.36
179.39
195.64
209.94
221.91
232.24
242.44
254.15
268.60
286.50
307.15
327.35
343.19
351.09
348.78
335.52
311.46
277.13
233.71
181.75
119.76
47.13
-34.77
-121.97
-208.96
-290.76
-364.33
-428.00
-482.93
-533.71
-584.02
-635.10
-685.15
-730.79
-769.55
-801.18
-826.29
-827.44
-790.76
-710.70
-595.53
-462.76
-329.60
-207.63
-109.23
-31.94
25.65
60.95
72.37
62.17
37.92
11.31
-5.05
-1.36
27.35
77.43
137.03
192.11
231.36
250.23
251.31
241.47
227.91
216.03
206.43
195.59
179.90
158.23
133.66
112.80
103.25
110.40
135.79
175.76
222.84
269.06
308.26
337.37
355.96
364.40
361.39
344.55
311.20
260.62
195.62
122.46
49.33
-15.56
-66.02
-100.73
-122.36
-136.45
-148.65
-162.77
-179.71
-197.42
-211.57
-217.73
-215.20
-207.12
-199.70
-199.03
-208.76
-229.03
-256.77
-287.01
-304.40
-296.56
-258.91
-198.26
-127.73
-58.49
4.07
59.23
107.73
149.75
182.54
204.37
214.19
213.53
206.26
196.55
187.22
179.15
171.56
161.61
147.20
127.75
104.92
81.60
60.19
41.60
25.24
9.77
-6.59
-24.80
-44.77
-65.17
-84.20
-100.71
-114.56
-126.50
-137.92
-150.92
-167.81
-190.24
-217.66
-246.39
-269.81
-280.20
-271.40
-241.49
-193.43
-133.74
-69.42
-5.52
55.54
112.50
163.07
202.87
226.50
230.58
216.33
189.98
160.64
136.45
121.89
117.05
119.03
124.36
130.59
136.43
141.00
143.22
141.75
136.10
127.32
118.07
111.80
111.30
117.68
130.28
146.75
164.28
180.44
193.28
201.61
204.93
203.51
198.27
190.40
180.43
168.40
154.09
137.29
118.07
96.96
74.95
53.21
32.68
12.84
-7.14
-27.65
-48.36
-68.84
-89.02
-109.59
-131.45
-154.67
-180.20
-206.29
-228.39
-241.07
-241.27
-229.58
-209.11
-183.36
-154.84
-130.61
-116.55
-115.78
-128.43
-153.14
-187.40
-226.92
-265.83
-298.60
-330.42
-367.08
-409.99
-454.75
-494.88
-525.24
-543.16
-548.13
-541.72
-538.10
-548.77
-576.55
-615.75
-659.10
-703.20
-748.11
-794.42
-773.19
-646.93
-428.11
-171.69
67.10
258.27
394.58
481.71
531.53
557.81
561.65
543.53
508.01
464.56
422.78
388.83
365.44
352.94
349.96
345.30
330.02
302.08
266.81
231.69
201.91
179.78
165.37
157.50
148.77
133.26
109.81
82.08
55.38
33.66
19.08
11.63
11.44
15.03
19.09
22.30
25.48
30.09
36.80
45.49
55.62
66.44
76.04
82.78
86.21
87.12
86.56
85.46
84.46
84.27
85.26
87.51
90.42
93.50
96.48
98.78
100.12
100.77
101.76
104.42
110.04
118.15
127.60
137.20
145.27
151.48
154.22
154.66
154.44
154.28
150.92
139.21
114.08
71.29
10.37
-64.70
-145.96
-224.23
-291.40
-344.46
-383.33
-399.67
-387.12
-344.38
-277.54
-197.24
-119.95
-48.70
14.19
65.99
103.69
122.37
117.90
88.22
32.79
-42.00
-121.95
-191.41
-237.71
-256.35
-252.99
-238.81
-225.39
-219.72
-222.21
-228.14
-235.30
-240.90
-244.38
-247.09
-249.57
-250.83
-248.44
-239.78
-223.66
-202.02
-177.97
-154.44
-134.77
-120.01
-109.36
-100.87
-92.52
-83.22
-73.77
-65.82
-61.11
-60.74
-64.22
-70.15
-76.75
-82.43
-86.35
-88.65
-89.83
-90.32
-90.13
-88.45
-84.15
-76.34
-64.59
-49.23
-31.13
-11.36
9.06
29.33
49.00
67.64
84.67
99.35
110.99
119.39
125.11
129.47
134.30
141.42
152.09
166.64
184.58
204.87
226.43
248.63
271.28
294.64
319.23
345.82
375.16
407.57
442.18
476.33
505.55
524.61
529.29
518.17
493.56
460.69
425.81
393.74
366.30
342.27
318.79
293.33
265.31
236.50
210.08
189.06
174.92
167.18
163.88
162.68
161.72
159.74
155.51
147.15
132.27
109.09
77.77
41.11
3.60
-30.40
-58.57
-81.13
-99.89
-116.33
-130.49
-141.26
-147.69
-150.64
-153.21
-159.78
-174.09
-197.36
-227.52
-259.64
-287.44
-305.03
-308.57
-297.37
-274.14
-244.11
-213.43
-187.06
-167.45
-154.28
-145.30
-138.14
-131.72
-126.60
-124.21
-125.36
-128.99
-132.05
-130.47
-120.82
-101.96
-75.27
-44.10
-12.35
17.02
42.69
64.96
85.29
105.66
128.04
153.96
183.97
217.09
250.66
280.90
304.07
317.68
321.29
316.21
304.85
289.56
272.01
253.13
233.51
213.70
194.30
175.67
157.61
139.55
120.99
102.29
85.00
71.44
63.83
63.23
69.09
79.61
92.74
107.11
122.51
139.62
159.06
180.58
202.73
223.03
238.70
247.48
248.12
240.61
226.09
206.56
184.34
161.55
139.69
119.46
100.90
83.81
68.09
54.13
42.61
34.14
28.77
25.85
24.16
22.38
19.73
16.00
11.67
7.37
3.59
0.07
-3.55
-7.35
-10.91
-13.55
-14.78
-14.55
-13.47
-12.41
-12.68
-15.15
-20.01
-26.75
-34.54
-42.69
-50.75
-58.62
-66.46
-75.42
-86.38
-99.44
-113.99
-129.11
-144.19
-159.11
-174.04
-189.28
-207.63
-231.09
-259.77
-291.86
-324.88
-356.90
-386.92
-414.33
-438.42
-463.40
-491.79
-522.49
-550.79
-571.33
-580.69
-578.24
-565.25
-543.76
-524.58
-516.20
-521.66
-537.69
-559.09
-582.06
-605.31
-628.55
-651.18
-682.90
-730.34
-793.55
-865.52
-938.23
-1006.57
-1070.04
-1131.30
-1123.91
-1011.67
-799.62
-533.23
-265.76
-30.37
165.16
325.37
455.73
558.55
623.03
642.77
618.35
567.46
509.38
459.20
424.54
407.22
406.92
414.22
422.28
430.11
438.50
447.00
454.84
459.68
459.29
453.65
438.45
411.32
373.05
334.13
297.05
263.01
231.61
201.58
173.03
143.58
111.83
78.13
44.80
13.90
-11.46
-28.22
-40.98
-50.50
-57.83
-63.55
-67.73
-70.00
-70.76
-69.84
-67.42
-64.15
-59.73
-54.40
-48.49
-42.42
-36.64
-32.01
-28.76
-26.94
-26.73
-27.48
-28.85
-30.67
-32.70
-34.64
-36.30
-37.10
-36.32
-33.31
-26.90
-16.36
-1.34
18.16
41.79
68.68
97.85
128.10
158.14
186.97
213.50
236.73
255.77
270.09
279.24
283.28
282.64
278.10
270.81
261.94
252.66
244.07
237.33
233.37
233.23
237.76
247.42
262.14
281.13
303.18
327.02
351.99
377.23
402.22
426.05
446.94
462.29
468.86
463.46
443.44
408.17
357.14
292.61
218.73
140.92
64.87
-4.76
-65.16
-115.74
-155.77
-188.17
-213.56
-232.08
-243.67
-249.17
-250.85
-252.05
-256.59
-265.31
-283.08
-310.53
-346.25
-386.22
-423.81
-450.85
-459.59
-445.31
-404.63
-345.59
-275.62
-202.06
-129.80
-60.41
6.87
73.21
117.08
160.82
196.08
218.35
225.29
218.13
201.35
181.04
162.51
147.84
139.06
129.58
117.07
102.20
88.81
81.86
84.50
96.05
112.00
128.73
138.56
139.63
133.46
123.62
113.86
106.67
103.01
102.71
106.82
113.14
120.94
128.88
134.81
136.23
131.34
119.99
104.03
87.32
71.94
59.23
48.27
36.58
21.42
1.03
-24.78
-54.96
-87.57
-120.91
-152.40
-178.63
-195.60
-200.10
-191.27
-171.48
-145.91
-120.44
-99.51
-84.76
-75.36
-69.74
-67.04
-67.58
-71.82
-78.66
-84.90
-86.22
-79.71
-66.01
-49.50
-36.20
-30.51
-32.79
-39.64
-46.14
-48.74
-46.79
-41.90
-36.10
-30.20
-23.60
-15.37
-5.62
4.45
13.28
20.35
27.06
35.78
48.14
63.08
76.84
84.33
82.12
71.13
57.33
50.02
57.97
85.17
128.51
178.64
223.44
252.88
262.48
253.86
232.87
206.02
177.90
150.11
122.30
93.64
64.01
33.99
4.11
-25.50
-54.67
-81.96
-104.01
-116.21
-114.78
-99.34
-74.02
-46.46
-24.82
-14.70
-17.38
-30.27
-49.21
-70.41
-91.69
-112.12
-131.47
-149.39
-164.80
-175.92
-180.90
-178.94
-171.33
-161.48
-153.04
-147.42
-141.64
-128.69
-100.82
-54.29
7.45
74.26
133.36
174.96
196.16
201.63
200.82
203.33
214.87
235.38
259.57
279.23
286.49
276.69
249.70
209.32
160.85
108.84
55.63
1.57
-53.31
-107.91
-160.16
-208.27
-252.79
-297.64
-348.64
-410.34
-482.74
-559.36
-628.16
-675.68
-691.93
-673.86
-625.88
-557.51
-479.98
-403.49
-335.80
-282.14
-244.97
-223.80
-214.77
-211.11
-204.98
-189.60
-160.83
-117.44
-60.76
5.90
76.73
143.09
194.24
219.94
213.93
176.50
115.15
41.94
-30.39
-92.09
-138.79
-172.15
-198.35
-225.72
-261.42
-308.14
-362.52
-415.87
-457.64
-479.94
-480.80
-464.67
-439.68
-413.91
-392.16
-375.37
-362.12
-351.02
-341.91
-335.06
-329.78
-323.29
-311.16
-288.66
-252.60
-202.40
-140.28
-70.65
1.59
72.57
139.47
199.93
251.70
292.47
320.07
333.02
330.99
315.30
289.90
259.73
229.33
202.13
180.54
166.16
160.14
163.14
175.25
197.30
229.27
269.64
316.00
366.32
419.83
477.08
533.51
580.84
613.93
633.06
642.10
644.42
639.95
625.01
594.57
553.04
500.01
439.52
378.33
322.42
274.58
234.08
197.99
163.44
128.98
94.30
61.90
33.27
6.93
-21.54
-57.31
-103.62
-159.49
-219.05
-273.16
-310.47
-322.15
-305.05
-262.86
-204.85
-143.20
-90.02
-54.45
-40.98
-47.02
-64.40
-81.89
-89.13
-80.34
-56.37
-24.08
7.14
29.11
38.43
35.99
24.88
7.57
-15.57
-45.69
-83.47
-127.68
-175.28
-222.62
-266.71
-304.90
-333.83
-349.13
-346.44
-323.69
-283.03
-231.29
-177.82
-130.60
-92.99
-63.12
-36.34
-8.62
21.44
52.52
81.54
105.03
120.35
126.85
126.21
122.24
120.04
124.86
140.55
167.69
201.83
232.93
249.71
246.33
225.27
193.49
157.26
119.96
82.60
45.72
10.93
-18.90
-40.82
-53.84
-59.89
-63.01
-67.47
-76.28
-90.44
-108.91
-129.00
-147.72
-162.80
-173.94
-183.02
-191.24
-199.23
-206.71
-212.53
-215.01
-212.70
-204.63
-191.41
-174.74
-156.67
-139.18
-123.83
-111.57
-102.86
-97.85
-95.89
-96.47
-98.98
-102.39
-105.35
-106.18
-102.98
-93.67
-80.80
-65.34
-48.20
-30.13
-11.57
7.13
25.67
43.55
60.02
74.15
85.93
95.60
104.01
112.45
122.26
134.39
148.95
165.20
181.79
197.93
213.10
227.51
241.97
257.60
275.57
296.78
321.49
348.86
376.88
401.92
419.49
425.50
417.78
397.23
367.55
333.95
301.26
272.56
248.40
227.50
208.02
188.70
169.39
150.61
132.88
115.94
98.77
80.01
58.67
34.85
9.82
-14.50
-36.36
-54.96
-70.70
-84.76
-98.38
-112.10
-125.44
-137.35
-146.71
-152.94
-156.27
-157.46
-157.38
-156.53
-154.83
-151.70
-146.52
-138.98
-129.27
-118.19
-106.69
-95.59
-85.31
-75.83
-66.96
-58.62
-50.98
-44.35
-39.01
-34.91
-31.77
-29.12
-26.59
-24.08
-21.70
-19.65
-18.01
-16.69
-15.45
-14.07
-12.35
-10.22
-7.74
-5.11
-2.68
-0.87
-0.04
-0.40
-1.86
-4.12
-6.69
-9.19
-11.37
-13.17
-14.72
-16.02
-16.99
-17.46
-17.26
-16.42
-15.27
-14.32
-14.13
-15.13
-17.28
-20.15
-22.92
-24.77
-25.19
-24.13
-21.95
-19.19
-16.28
-13.35
-10.28
-6.85
-2.88
1.45
5.77
9.60
12.50
14.17
14.49
13.51
11.41
8.55
5.31
2.16
-0.45
-2.22
-3.09
-3.23
-3.07
-3.08
-3.58
-4.63
-5.97
-7.23
-8.25
-9.22
-10.57
-12.84
-16.21
-20.41
-24.80
-28.68
-31.66
-33.89
-35.82
-37.97
-40.63
-43.63
-46.43
-48.39
-49.08
-48.55
-47.35
-46.38
-46.58
-48.54
-52.18
-56.64
-60.58
-62.60
-61.73
-57.77
-51.24
-43.12
-34.46
-26.02
-18.12
-10.51
-2.35
7.82
21.72
40.65
64.48
90.93
115.57
132.74
137.52
127.47
103.91
71.57
37.14
7.08
-14.37
-26.14
-30.21
-30.36
-30.69
-34.10
-41.56
-52.10
-63.48
-73.29
-79.69
-81.92
-80.07
-74.58
-65.81
-53.79
-38.63
-20.97
-2.41
14.79
28.34
36.82
40.24
39.82
37.24
33.48
28.25
20.05
7.21
-10.88
-32.97
-56.20
-77.21
-93.59
-104.89
-112.41
-118.12
-123.21
-127.20
-128.14
-123.82
-113.33
-97.79
-80.01
-63.12
-49.10
-38.15
-28.99
-19.93
-9.86
1.25
12.75
23.97
34.78
45.57
56.88
68.96
81.47
93.71
104.82
114.16
121.37
126.40
129.35
130.37
129.58
126.96
122.48
116.18
108.42
99.83
91.25
83.48
76.98
71.74
67.29
63.06
58.56
53.66
48.49
43.33
38.50
34.25
30.79
28.22
26.59
25.79
25.62
25.84
26.26
26.87
27.78
29.15
30.95
32.97
34.77
35.96
36.36
36.03
35.28
34.44
33.78
33.43
33.38
33.54
33.82
34.15
34.45
34.67
34.79
34.84
34.90
35.02
35.23
35.50
35.72
35.80
35.62
35.16
34.49
33.75
33.04
32.40
31.74
30.76
29.00
25.95
21.22
14.66
6.58
-2.32
-11.06
-18.64
-24.33
-27.84
-29.33
-29.35
-28.51
-27.35
-26.17
-25.12
-24.25
-23.73
-23.72
-24.42
-25.84
-27.84
-30.10
-32.20
-33.80
-34.71
-34.90
-34.42
-33.32
-31.58
-29.23
-26.37
-23.22
-20.09
-17.27
-15.00
-13.30
-12.08
-11.16
-10.38
-9.62
-8.78
-7.85
-6.76
-5.64
-4.73
-4.54
-5.62
-8.36
-12.73
-18.11
-23.53
-27.92
-30.59
-31.36
-30.59
-28.86
-26.68
-24.34
-21.88
-19.35
-16.85
-14.71
-13.22
-12.56
-12.58
-12.91
-13.05
-12.61
-11.46
-9.75
-7.81
-5.97
-4.44
-3.24
-2.13
-0.89
0.76
2.81
5.08
7.24
8.97
10.10
10.58
10.64
10.55
10.59
10.88
11.38
11.83
11.90
11.30
9.86
7.78
5.44
3.38
2.03
1.61
1.97
2.79
3.71
4.47
4.99
5.28
5.34
5.13
4.57
3.63
2.40
1.08
-0.15
-1.15
-1.98
-2.78
-3.74
-5.00
-6.58
-8.37
-10.14
-11.69
-12.87
-13.67
-14.15
-14.39
-14.49
-14.44
-14.22
-13.75
-12.99
-11.92
-10.51
-8.75
-6.64
-4.24
-1.67
0.89
3.26
5.37
7.19
8.72
9.93
10.77
11.15
11.13
10.84
10.47
10.17
9.99
9.75
9.25
8.33
7.01
5.55
4.23
3.24
2.58
2.10
1.52
0.69
-0.45
-1.73
-2.86
-3.60
-3.90
-3.82
-3.63
-3.60
-3.87
-4.48
-5.28
-6.11
-6.83
-7.39
-7.80
-8.15
-8.58
-9.15
-9.94
-10.96
-12.13
-13.29
-14.17
-14.52
-14.15
-13.01
-11.16
-8.80
-6.19
-3.46
-0.77
1.85
4.35
6.61
8.48
9.84
10.65
11.00
11.21
11.53
12.22
13.34
14.75
16.19
17.41
18.26
18.74
19.06
19.42
20.10
21.29
23.10
25.45
28.18
30.98
33.51
35.42
36.45
36.46
35.48
33.65
31.18
28.31
25.22
22.14
19.25
16.77
14.90
13.72
13.15
12.87
12.46
11.49
9.79
7.52
5.14
3.26
2.47
3.19
5.54
9.37
14.19
19.22
23.51
26.03
26.06
23.35
18.41
12.27
6.26
1.58
-1.03
-1.34
0.42
3.78
8.24
13.42
18.93
24.39
29.19
32.66
34.28
33.85
31.55
27.96
23.90
20.17
17.54
16.32
16.57
18.17
20.91
24.47
28.27
31.43
32.92
32.01
28.44
22.94
17.20
13.18
12.27
14.90
20.87
30.13
43.54
61.75
84.99
112.12
140.01
163.76
177.98
178.40
163.29
134.20
93.44
44.94
-6.23
-54.68
-95.77
-126.63
-146.48
-156.26
-157.34
-154.65
-153.02
-156.26
-166.36
-183.54
-206.66
-233.72
-262.21
-289.00
-316.08
-346.54
-382.94
-425.58
-472.15
-518.58
-560.54
-594.71
-598.93
-561.27
-482.25
-376.10
-263.31
-160.00
-72.72
-0.07
56.90
105.46
146.52
178.45
199.84
211.58
216.55
217.87
217.54
215.55
212.12
204.24
190.31
171.11
149.59
129.29
112.65
100.29
91.70
86.91
83.91
81.25
78.49
76.14
75.19
76.38
79.76
84.62
90.33
94.75
95.99
93.24
87.00
78.82
70.54
63.61
58.68
55.87
54.21
52.70
50.72
48.23
45.69
43.65
42.53
42.57
43.92
46.62
50.68
56.10
62.68
70.03
77.61
84.90
91.55
97.51
102.92
107.95
112.65
116.81
120.06
121.95
122.17
120.68
117.81
114.24
110.76
107.94
105.77
103.57
100.11
94.15
84.89
72.42
57.67
42.18
27.53
14.94
4.98
-2.57
-8.66
-14.66
-22.02
-31.83
-44.23
-58.38
-72.65
-85.17
-94.54
-100.37
-103.41
-105.20
-107.49
-111.50
-117.43
-124.39
-130.73
-134.68
-135.04
-131.60
-125.12
-117.03
-108.86
-101.83
-96.67
-93.69
-92.86
-93.85
-96.07
-98.73
-101.15
-103.09
-104.91
-107.44
-111.41
-117.06
-123.88
-130.76
-136.65
-141.05
-144.24
-146.89
-149.46
-151.69
-152.61
-151.03
-146.32
-138.74
-129.35
-119.27
-108.98
-98.11
-85.87
-71.81
-56.30
-40.41
-25.20
-11.11
2.32
15.84
29.79
43.44
55.22
63.55
67.94
69.48
70.51
73.53
79.97
89.51
100.29
109.78
115.97
118.07
116.68
113.10
108.61
103.87
98.89
93.41
87.34
81.05
75.13
70.06
65.86
62.03
57.79
52.46
45.83
38.25
30.62
24.09
19.81
18.60
20.79
25.98
33.19
41.11
48.45
54.41
58.90
62.51
66.32
71.35
78.18
86.67
96.04
105.10
112.68
118.04
121.10
122.48
123.26
124.64
127.48
132.06
138.05
144.77
151.50
157.70
163.03
167.10
169.32
168.90
165.18
158.07
148.25
136.92
125.19
113.46
101.25
87.63
72.01
54.76
37.06
20.09
4.11
-11.89
-29.56
-49.99
-72.59
-94.94
-113.71
-126.22
-131.70
-131.44
-128.01
-123.86
-120.39
-117.62
-114.65
-110.55
-104.97
-98.55
-92.51
-88.11
-85.90
-85.37
-85.17
-83.75
-80.32
-75.25
-69.99
-66.24
-64.95
-65.68
-66.86
-66.62
-63.95
-59.31
-54.38
-51.21
-51.23
-54.62
-60.33
-66.68
-72.09
-75.69
-77.35
-77.45
-76.50
-74.79
-72.47
-69.65
-66.72
-64.14
-62.12
-60.17
-56.92
-50.58
-39.85
-24.74
-6.93
10.68
25.04
34.08
37.29
35.61
30.79
24.66
18.66
13.84
11.05
11.11
14.76
22.14
32.46
43.84
53.66
59.48
60.06
55.89
49.10
42.49
38.18
36.56
36.19
34.64
29.85
21.13
9.27
-4.19
-17.94
-31.45
-44.79
-58.01
-70.65
-81.76
-90.50
-96.86
-101.86
-107.12
-113.89
-122.40
-131.85
-141.04
-149.23
-156.44
-163.14
-169.37
-174.19
-175.79
-172.42
-163.69
-151.22
-138.46
-129.15
-125.62
-127.61
-132.44
-136.30
-136.19
-131.04
-121.56
-109.35
-95.25
-78.70
-57.96
-31.40
1.08
37.20
72.74
102.96
124.48
136.72
141.99
144.27
147.21
152.50
159.26
164.93
166.95
164.35
158.26
151.03
144.72
139.91
135.49
129.51
120.51
108.40
94.35
80.28
67.83
57.81
50.23
44.61
40.53
37.95
37.19
38.60
42.25
47.74
54.17
60.54
66.05
70.34
73.66
76.72
80.26
84.75
90.18
95.81
100.51
102.96
102.11
97.28
88.37
75.64
59.58
40.87
20.41
-0.54
-20.74
-39.39
-56.41
-72.26
-87.05
-99.61
-107.32
-107.08
-97.17
-78.98
-57.14
-37.71
-25.33
-20.91
-21.44
-22.02
-19.07
-12.30
-4.64
0.03
-0.34
-4.71
-9.67
-11.67
-9.19
-3.60
1.96
4.46
2.78
-1.88
-6.96
-10.01
-9.77
-6.41
-0.71
6.62
15.48
26.08
38.50
52.17
65.91
78.30
88.17
94.97
98.83
100.46
100.75
100.56
100.35
100.03
98.82
95.58
89.23
79.46
66.97
53.35
40.42
29.38
20.47
12.90
5.37
-3.42
-14.43
-28.33
-45.48
-66.01
-89.62
-115.26
-141.11
-164.79
-184.03
-197.17
-203.72
-204.33
-200.53
-194.16
-186.76
-179.14
-171.31
-162.60
-152.16
-139.38
-124.06
-106.33
-86.40
-64.41
-40.68
-15.90
8.79
32.26
54.13
75.17
96.89
120.43
145.43
169.74
190.26
204.55
212.08
214.52
214.67
214.92
216.02
217.18
217.04
214.69
210.47
205.44
200.65
196.11
190.41
181.08
165.48
142.02
111.11
75.59
39.96
9.03
-13.81
-27.83
-34.96
-38.67
-42.20
-47.21
-53.18
-57.98
-59.13
-54.97
-45.33
-31.55
-16.11
-1.86
8.76
14.46
15.52
13.54
10.82
9.30
9.93
12.55
16.38
20.83
25.94
32.20
39.76
47.65
53.39
53.53
44.90
26.07
-1.66
-34.55
-67.70
-96.84
-119.54
-135.69
-146.66
-154.11
-159.00
-161.70
-162.64
-162.89
-164.12
-167.59
-173.07
-178.65
-181.47
-179.24
-171.35
-158.92
-143.86
-127.73
-111.18
-94.34
-77.63
-62.29
-49.99
-41.88
-37.88
-36.62
-36.33
-35.73
-34.47
-32.84
-30.89
-28.03
-23.06
-14.91
-3.42
10.31
24.29
36.48
45.64
51.84
56.24
60.48
65.81
72.75
80.87
89.24
96.98
103.66
109.33
114.10
117.67
118.98
116.35
108.19
93.76
73.67
49.72
24.25
-0.75
-23.91
-44.25
-60.58
-71.13
-73.95
-67.71
-52.82
-31.66
-8.08
14.02
31.96
44.97
53.80
59.66
63.21
64.05
61.16
53.87
42.79
30.05
18.66
11.35
9.41
12.20
17.57
22.83
25.68
24.81
19.78
10.81
-1.22
-14.81
-27.68
-37.28
-41.59
-39.93
-33.19
-23.25
-11.96
-0.25
11.69
23.78
35.18
44.14
48.81
48.29
43.45
36.63
30.55
26.87
25.37
24.08
20.33
11.98
-1.91
-21.05
-44.40
-70.60
-98.05
-124.73
-148.09
-165.38
-174.35
-174.07
-165.40
-150.74
-133.15
-115.25
-98.55
-83.33
-69.22
-56.00
-43.91
-33.60
-25.59
-19.88
-15.76
-12.21
-8.22
-3.18
3.09
10.52
18.88
27.80
36.48
43.80
48.58
49.98
47.94
43.00
36.02
27.75
18.56
8.67
-1.63
-11.72
-20.74
-27.87
-32.79
-35.74
-37.55
-39.28
-41.87
-45.84
-51.09
-57.04
-62.71
-67.22
-70.03
-71.18
-71.21
-70.83
-70.33
-69.24
-66.29
-59.78
-48.32
-31.50
-10.19
13.84
38.43
61.92
83.49
103.05
120.83
136.87
150.94
162.77
172.68
181.57
190.91
201.99
215.22
229.59
242.81
251.79
253.40
244.98
224.46
190.44
142.40
81.38
10.88
-62.82
-131.39
-186.45
-221.90
-235.75
-230.41
-211.25
-184.38
-154.61
-124.74
-96.02
-69.30
-45.74
-26.67
-12.90
-4.02
1.45
5.67
10.26
15.72
21.27
25.50
27.11
25.50
21.13
15.28
9.70
5.88
4.44
4.78
5.24
3.78
-1.16
-9.75
-20.75
-31.94
-41.19
-47.28
-50.27
-51.18
-51.37
-52.01
-53.69
-56.35
-59.19
-60.58
-58.19
-49.58
-33.30
-9.87
17.77
44.93
66.71
79.77
83.40
79.40
70.90
60.87
51.17
42.33
34.30
27.08
21.20
17.42
16.14
17.01
18.93
20.44
20.46
18.70
15.85
13.08
11.58
11.96
14.03
16.99
19.85
21.92
23.13
24.06
25.55
28.30
32.41
37.42
42.37
46.36
48.84
49.71
49.30
48.19
47.12
46.78
47.90
51.02
56.17
62.26
66.72
66.17
57.65
39.93
14.31
-15.58
-45.02
-69.78
-87.37
-97.61
-101.87
-102.23
-100.45
-97.55
-94.00
-90.10
-86.33
-83.44
-82.40
-83.75
-87.51
-93.04
-99.05
-104.27
-108.05
-110.50
-111.99
-112.86
-112.70
-110.53
-105.35
-96.54
-84.33
-69.65
-53.47
-36.23
-17.79
2.15
23.30
44.32
63.12
77.43
85.87
88.47
86.74
82.93
79.37
77.64
78.36
81.27
85.58
90.32
94.73
98.50
101.64
104.46
107.23
110.05
112.88
115.47
117.54
118.83
119.13
118.33
116.43
113.60
110.14
106.47
102.83
99.00
94.24
87.33
76.96
62.27
43.31
21.12
-2.43
-25.35
-46.14
-64.21
-79.78
-93.62
-106.42
-118.41
-129.27
-138.27
-144.55
-147.46
-146.69
-142.38
-135.00
-125.30
-114.02
-101.84
-89.29
-76.75
-64.58
-53.12
-42.74
-33.68
-25.97
-19.40
-13.48
-7.72
-1.84
4.15
9.94
15.06
19.13
22.00
23.74
24.51
24.42
23.41
21.32
18.12
14.01
9.55
5.47
2.31
0.26
-1.00
-2.00
-3.34
-5.37
-8.11
-11.31
-14.62
-17.72
-20.34
-22.32
-23.56
-24.13
-24.31
-24.57
-25.35
-26.91
-29.03
-31.07
-32.24
-31.95
-30.12
-27.16
-23.74
-20.39
-17.27
-14.14
-10.61
-6.65
-2.65
0.57
2.24
1.92
-0.05
-2.78
-4.88
-4.97
-1.99
4.58
14.72
27.92
43.35
60.00
76.72
92.35
105.72
115.85
122.13
124.55
123.66
120.50
116.26
111.95
108.17
105.14
102.72
100.62
98.29
94.78
88.79
78.89
64.02
44.05
20.13
-5.62
-30.70
-53.18
-72.19
-87.92
-101.11
-112.48
-122.18
-129.78
-134.57
-135.93
-133.60
-127.70
-118.56
-106.62
-92.40
-76.59
-60.10
-43.95
-29.14
-16.26
-5.41
3.89
12.37
20.70
29.08
37.09
43.85
48.36
49.83
48.05
43.23
35.94
26.87
16.69
6.13
-4.00
-12.86
-19.96
-25.26
-29.33
-32.97
-36.71
-40.47
-43.55
-45.01
-44.23
-41.31
-37.01
-32.38
-28.16
-24.56
-21.30
-17.96
-14.39
-10.83
-7.79
-5.77
-5.02
-5.42
-6.65
-8.23
-9.69
-10.67
-10.87
-9.99
-7.82
-4.25
0.57
6.19
11.95
17.12
21.15
23.69
24.60
23.87
21.41
17.21
11.36
4.26
-3.41
-10.82
-17.23
-22.28
-26.00
-28.74
-30.79
-32.18
-32.49
-31.05
-27.30
-21.11
-12.87
-3.48
6.17
15.38
23.81
31.34
37.82
42.81
45.78
46.39
44.75
41.54
37.69
33.96
30.57
27.24
23.35
18.38
12.17
4.87
-3.11
-11.53
-20.37
-29.84
-40.05
-50.74
-61.13
-70.06
-76.33
-79.03
-77.94
-73.41
-66.13
-56.94
-46.62
-35.88
-25.43
-15.85
-7.41
0.12
7.34
14.99
23.37
32.08
40.20
46.74
51.16
53.67
55.07
56.29
57.98
60.17
62.55
64.61
65.83
65.83
64.22
60.71
55.10
47.43
37.93
27.11
15.60
4.06
-6.79
-16.25
-23.86
-29.64
-34.25
-38.81
-44.31
-50.99
-57.99
-63.74
-66.84
-66.98
-65.22
-63.34
-62.76
-63.70
-65.01
-65.09
-62.76
-57.92
-51.35
-43.78
-35.29
-24.90
-11.10
7.43
31.11
59.03
88.95
117.72
142.03
159.44
169.41
173.66
175.70
179.61
188.51
203.32
222.79
244.16
264.37
281.06
292.95
299.69
301.57
299.32
294.04
287.03
279.20
270.61
260.18
246.17
226.93
201.75
171.11
136.32
98.89
59.92
20.28
-19.08
-56.66
-90.41
-118.32
-139.41
-154.22
-164.91
-174.82
-187.52
-205.76
-230.74
-261.45
-294.89
-326.90
-353.57
-372.55
-383.78
-389.16
-391.43
-392.71
-393.47
-392.46
-387.26
-375.53
-356.04
-329.39
-297.82
-264.41
-231.77
-200.83
-170.52
-138.61
-103.25
-64.55
-25.01
11.45
41.29
62.85
76.83
85.16
89.55
90.33
86.66
77.62
63.47
46.12
28.48
13.26
1.89
-5.66
-10.31
-12.96
-13.72
-11.98
-6.82
2.17
14.45
28.29
41.21
50.69
54.96
53.67
47.92
39.80
31.57
24.81
20.00
16.63
13.71
10.46
6.69
2.83
-0.28
-1.71
-0.57
3.93
12.36
24.76
40.36
57.56
74.23
88.45
99.20
106.72
112.28
117.59
123.96
131.72
140.27
148.35
154.71
158.51
159.48
157.76
153.74
147.89
140.74
132.85
124.84
117.26
110.47
104.52
99.19
94.05
88.64
82.57
75.53
67.31
57.79
46.97
34.97
22.33
9.97
-0.81
-8.64
-12.58
-12.61
-9.81
-6.31
-4.67
-7.08
-14.67
-27.14
-43.01
-60.20
-76.87
-91.82
-104.59
-115.17
-123.59
-129.88
-134.05
-136.44
-137.66
-138.39
-138.76
-138.17
-135.35
-129.17
-119.44
-107.37
-95.27
-85.50
-79.23
-75.92
-73.59
-69.85
-63.10
-53.28
-41.61
-29.85
-19.35
-10.51
-2.95
3.95
10.52
16.58
21.77
25.95
29.57
33.45
38.25
43.91
49.62
54.13
56.42
56.12
53.63
49.87
45.83
42.20
39.30
37.28
36.21
36.09
36.78
37.81
38.41
37.69
34.87
29.64
22.39
14.11
6.18
-0.04
-3.64
-4.51
-3.28
-1.19
0.50
0.90
-0.24
-2.58
-5.43
-8.17
-10.51
-12.49
-14.32
-16.14
-17.88
-19.31
-20.17
-20.19
-19.32
-17.56
-14.93
-11.36
-6.76
-1.18
5.08
11.50
17.67
23.42
29.12
35.39
42.71
50.94
59.11
65.76
69.49
69.76
67.00
62.50
57.73
53.74
50.95
49.36
48.81
48.89
48.94
47.86
44.48
38.25
29.84
21.34
15.33
13.59
15.89
20.03
22.97
22.48
18.34
12.16
6.25
2.15
-0.07
-1.48
-3.13
-5.22
-6.95
-7.12
-5.21
-1.70
2.05
4.69
5.59
5.03
3.78
2.49
1.29
-0.33
-3.12
-7.58
-13.57
-20.28
-26.56
-31.50
-34.79
-36.70
-37.91
-39.00
-40.22
-41.37
-42.17
-42.44
-42.33
-42.15
-42.05
-41.85
-41.08
-39.31
-36.50
-33.15
-30.05
-27.78
-26.29
-24.88
-22.54
-18.56
-12.90
-6.27
0.25
5.75
9.82
12.67
14.79
16.56
18.03
18.90
18.87
17.88
16.32
14.84
14.04
14.13
14.88
15.82
16.60
17.36
18.69
21.34
25.68
31.42
37.62
42.98
46.43
47.54
46.59
44.25
41.14
37.41
32.65
26.49
19.01
10.98
3.48
-2.95
-8.83
-15.62
-24.75
-36.55
-49.55
-60.99
-68.11
-69.47
-65.69
-58.91
-51.57
-45.27
-40.34
-36.19
-32.35
-29.06
-27.31
-28.19
-32.12
-38.27
-44.84
-49.83
-51.92
-51.21
-48.98
-46.81
-45.63
-44.99
-43.30
-38.80
-30.67
-19.64
-7.87
2.05
8.26
10.45
10.05
9.48
11.03
15.81
23.22
31.26
37.45
39.89
37.95
32.41
24.86
16.84
9.20
2.03
-5.02
-12.11
-18.92
-24.70
-28.72
-30.76
-31.37
-31.64
-32.66
-35.04
-38.49
-41.96
-44.17
-44.13
-41.64
-37.24
-31.70
-25.68
-19.33
-12.38
-4.50
4.37
13.80
23.02
31.20
37.81
42.70
46.08
48.33
49.82
50.77
51.20
51.07
50.31
48.98
47.15
44.98
42.65
40.34
38.18
36.27
34.66
33.27
31.93
30.44
28.65
26.55
24.25
21.90
19.59
17.28
14.86
12.19
9.18
5.84
2.33
-1.20
-4.52
-7.46
-9.98
-12.17
-14.26
-16.49
-19.03
-21.81
-24.52
-26.67
-27.81
-27.67
-26.28
-23.90
-20.88
-17.57
-14.20
-10.89
-7.66
-4.53
-1.57
1.14
3.40
5.08
6.01
6.17
5.60
4.45
2.93
1.25
-0.39
-1.92
-3.28
-4.50
-5.52
-6.24
-6.54
-6.29
-5.50
-4.37
-3.23
-2.42
-2.12
-2.28
-2.62
-2.76
-2.35
-1.24
0.59
2.95
5.65
8.51
11.31
13.84
15.84
17.06
17.29
16.48
14.72
12.31
9.61
7.03
4.93
3.59
3.23
3.90
5.61
8.21
11.45
15.01
18.60
22.01
25.19
28.23
31.23
34.20
36.91
38.90
39.77
39.33
37.79
35.71
33.71
32.18
31.16
30.30
29.21
27.68
25.81
23.87
22.18
20.84
19.74
18.61
17.09
14.89
11.80
7.69
2.57
-3.38
-9.88
-16.59
-23.16
-29.45
-35.44
-41.17
-46.61
-51.55
-55.61
-58.42
-59.76
-59.67
-58.45
-56.54
-54.43
-52.57
-51.31
-50.82
-51.12
-51.95
-52.82
-53.09
-52.14
-49.57
-45.37
-39.95
-33.91
-27.80
-22.00
-16.58
-11.46
-6.54
-1.90
2.23
5.55
7.99
9.72
11.19
12.92
15.23
18.17
21.43
24.55
26.95
28.16
27.86
25.92
22.56
18.36
14.19
10.99
9.44
9.57
10.83
12.26
12.96
12.55
11.23
9.59
8.24
7.40
6.87
6.19
5.01
3.28
1.25
-0.75
-2.56
-4.35
-6.51
-9.49
-13.57
-18.79
-24.94
-31.53
-37.92
-43.31
-46.87
-48.04
-46.71
-43.37
-38.90
-34.28
-30.16
-26.71
-23.70
-20.73
-17.62
-14.46
-11.53
-9.02
-6.89
-4.73
-2.14
1.08
4.77
8.35
11.16
12.73
13.05
12.65
12.32
12.80
14.42
17.04
20.11
23.01
25.37
27.14
28.60
30.09
31.81
33.72
35.67
37.40
38.70
39.42
39.46
38.88
37.87
36.89
36.51
37.36
39.75
43.52
48.03
52.24
55.20
56.37
55.91
54.65
53.93
55.22
59.64
67.62
78.66
91.57
104.78
116.85
126.92
134.83
140.91
145.45
148.06
147.34
141.08
127.07
104.00
72.28
34.39
-5.37
-41.86
-70.30
-87.44
-92.42
-87.04
-75.19
-61.81
-51.47
-47.02
-49.02
-56.07
-65.91
-76.93
-88.92
-102.85
-119.55
-138.65
-158.12
-174.85
-185.80
-188.97
-183.49
-168.85
-144.29
-108.91
-62.89
-8.89
47.73
100.14
142.34
171.25
187.38
193.57
193.09
188.01
179.14
166.99
153.03
140.12
131.56
129.46
133.39
140.37
146.35
148.28
145.61
140.22
135.12
132.55
132.59
133.20
131.31
124.57
112.32
95.75
77.09
58.83
43.42
33.30
30.60
36.35
49.18
64.71
76.43
77.98
65.91
41.12
8.01
-28.24
-64.67
-101.98
-143.47
-192.28
-248.95
-310.79
-373.47
-433.58
-489.84
-542.30
-589.88
-628.39
-650.71
-649.58
-621.54
-569.70
-503.49
-435.36
-376.26
-332.19
-303.39
-286.02
-275.12
-266.90
-259.53
-252.49
-245.22
-236.42
-224.09
-206.33
-182.22
-152.32
-118.47
-83.05
-48.15
-14.86
16.79
47.53
78.27
109.67
142.04
175.46
209.68
243.88
276.34
304.35
324.74
334.79
333.24
320.69
299.27
271.83
241.03
208.98
177.23
147.16
120.02
96.72
77.35
60.99
46.10
31.36
16.54
2.73
-8.08
-14.04
-14.40
-9.85
-2.09
7.06
16.51
26.39
37.87
52.61
71.97
96.47
125.53
157.54
190.08
220.16
244.60
260.44
265.50
258.88
241.41
215.36
183.68
148.90
112.19
73.40
32.17
-10.64
-51.99
-86.98
-110.46
-119.15
-112.97
-95.09
-70.43
-43.85
-18.74
3.24
21.61
36.30
47.22
54.52
58.74
61.01
62.64
64.50
66.54
67.61
65.91
59.75
48.45
32.60
14.05
-4.89
-22.17
-36.45
-47.30
-54.86
-59.56
-61.80
-61.87
-60.00
-56.45
-51.57
-45.65
-39.00
-31.84
-24.40
-16.96
-9.86
-3.55
1.66
5.51
8.01
9.29
9.59
9.17
8.18
6.77
4.95
2.86
0.65
-1.47
-3.38
-5.00
-6.42
-7.80
-9.28
-10.98
-12.85
-14.76
-16.51
-17.93
-18.97
-19.70
-20.37
-21.26
-22.65
-24.62
-27.15
-29.98
-32.76
-35.14
-36.82
-37.61
-37.44
-36.22
-33.95
-30.69
-26.54
-21.70
-16.45
-11.07
-5.86
-1.10
2.98
6.25
8.60
10.09
10.84
11.07
11.03
10.93
10.97
11.27
11.89
12.80
13.93
15.10
16.08
16.74
17.02
17.02
16.93
16.91
17.00
17.16
17.22
16.98
16.32
15.09
13.20
10.60
7.31
3.46
-0.70
-4.88
-8.79
-12.22
-15.12
-17.45
-19.24
-20.42
-20.86
-20.36
-18.85
-16.30
-12.85
-8.85
-4.68
-0.83
2.29
4.44
5.56
5.78
5.41
4.76
4.12
3.64
3.30
2.98
2.51
1.75
0.56
-1.04
-2.85
-4.40
-4.87
-3.32
1.05
8.59
18.99
31.27
44.04
55.91
65.74
72.78
76.62
77.13
74.51
69.31
62.50
55.31
48.95
44.19
41.26
39.79
39.18
38.94
38.92
39.31
40.44
42.46
45.08
47.66
49.29
49.24
47.13
43.11
37.72
31.72
25.82
20.47
15.84
11.79
8.00
4.08
-0.39
-5.69
-12.02
-19.37
-27.53
-36.05
-44.41
-52.18
-59.09
-65.25
-70.98
-76.63
-82.34
-87.82
-92.34
-94.97
-94.93
-91.85
-85.98
-78.01
-68.89
-59.51
-50.48
-42.09
-34.33
-27.16
-20.48
-14.25
-8.43
-2.88
2.66
8.48
14.76
21.42
28.06
34.08
38.75
41.59
42.45
41.62
39.74
37.50
35.46
33.85
32.61
31.44
29.99
28.07
25.71
23.11
20.57
18.37
16.69
15.51
14.64
13.77
12.58
10.80
8.27
4.98
0.98
-3.70
-9.00
-14.74
-20.63
-26.16
-30.77
-33.97
-35.49
-35.28
-33.56
-30.58
-26.55
-21.67
-16.10
-10.08
-3.93
1.98
7.33
11.82
15.32
17.84
19.44
20.26
20.44
20.10
19.30
18.12
16.63
14.98
13.34
11.87
10.67
9.76
9.08
8.47
7.81
6.92
5.76
4.31
2.59
0.66
-1.46
-3.75
-6.15
-8.61
-11.05
-13.37
-15.51
-17.41
-19.02
-20.26
-21.03
-21.22
-20.72
-19.54
-17.69
-15.22
-12.19
-8.67
-4.84
-0.95
2.67
5.79
8.24
10.05
11.35
12.30
13.01
13.50
13.80
13.88
13.74
13.36
12.79
12.11
11.45
10.95
10.67
10.63
10.67
10.54
10.02
8.93
7.32
5.36
3.33
1.40
-0.29
-1.78
-3.15
-4.50
-5.89
-7.28
-8.62
-9.85
-11.03
-12.19
-13.31
-14.23
-14.69
-14.42
-13.25
-11.24
-8.63
-5.77
-3.00
-0.48
1.78
3.92
6.05
8.15
10.07
11.59
12.55
12.89
12.75
12.33
11.88
11.50
11.21
10.86
10.35
9.71
8.97
8.26
7.59
6.94
6.25
5.43
4.47
3.40
2.30
1.22
0.20
-0.79
-1.79
-2.80
-3.90
-5.13
-6.54
-8.13
-9.92
-11.79
-13.65
-15.35
-16.71
-17.62
-17.98
-17.75
-16.90
-15.46
-13.41
-10.81
-7.73
-4.28
-0.65
2.93
6.23
9.04
11.21
12.72
13.61
13.93
13.81
13.30
12.44
11.31
10.03
8.76
7.71
7.02
6.72
6.70
6.78
6.81
6.67
6.38
5.99
5.55
5.06
4.45
3.66
2.67
1.53
0.38
-0.67
-1.60
-2.44
-3.30
-4.25
-5.31
-6.43
-7.50
-8.41
-9.16
-9.81
-10.43
-11.07
-11.70
-12.15
-12.22
-11.76
-10.72
-9.22
-7.48
-5.64
-3.78
-1.89
0.14
2.31
4.54
6.64
8.35
9.51
10.10
10.18
9.87
9.30
8.49
7.46
6.28
5.06
3.97
3.18
2.73
2.55
2.52
2.48
2.33
2.04
1.67
1.30
1.01
0.86
0.86
1.02
1.30
1.65
2.02
2.35
2.64
2.83
2.81
2.50
1.77
0.52
-1.29
-3.61
-6.32
-9.12
-11.68
-13.71
-14.99
-15.41
-15.05
-13.97
-12.31
-10.19
-7.68
-4.90
-2.00
0.90
3.65
6.14
8.28
10.01
11.29
12.11
12.55
12.68
12.63
12.44
12.13
11.64
10.88
9.76
8.26
6.43
4.31
2.06
-0.26
-2.48
-4.47
-6.12
-7.36
-8.23
-8.88
-9.52
-10.37
-11.64
-13.32
-15.28
-17.27
-18.98
-20.22
-20.96
-21.34
-21.58
-21.91
-22.48
-23.24
-24.01
-24.56
-24.64
-24.15
-23.10
-21.61
-19.83
-17.89
-15.86
-13.83
-11.87
-10.08
-8.49
-7.03
-5.58
-3.97
-2.14
-0.16
1.79
3.53
4.94
6.10
7.14
8.23
9.45
10.80
12.24
13.76
15.35
16.97
18.50
19.70
20.29
20.07
19.01
17.30
15.25
13.16
11.19
9.42
7.75
6.14
4.57
3.04
1.54
0.04
-1.51
-3.18
-4.94
-6.73
-8.41
-9.85
-10.97
-11.76
-12.22
-12.31
-11.97
-11.13
-9.74
-7.79
-5.37
-2.64
0.22
3.00
5.55
7.74
9.47
10.65
11.29
11.46
11.22
10.72
10.08
9.37
8.67
8.02
7.42
6.81
6.13
5.31
4.35
3.31
2.30
1.40
0.59
-0.18
-0.99
-1.89
-2.82
-3.65
-4.27
-4.62
-4.74
-4.69
-4.56
-4.43
-4.33
-4.33
-4.49
-4.86
-5.49
-6.29
-7.19
-8.05
-8.79
-9.34
-9.63
-9.58
-9.09
-8.08
-6.49
-4.41
-1.97
0.65
3.19
5.52
7.47
8.92
9.81
10.10
9.76
8.80
7.36
5.64
3.94
2.51
1.55
1.15
1.26
1.75
2.47
3.30
4.10
4.78
5.19
5.23
4.84
4.04
2.91
1.64
0.35
-0.86
-1.93
-2.87
-3.76
-4.67
-5.65
-6.74
-7.86
-8.94
-9.90
-10.69
-11.31
-11.82
-12.25
-12.59
-12.77
-12.68
-12.28
-11.57
-10.59
-9.46
-8.23
-6.92
-5.52
-3.99
-2.33
-0.60
1.11
2.69
4.05
5.16
5.97
6.49
6.69
6.59
6.20
5.63
4.95
4.25
3.64
3.22
3.07
3.15
3.37
3.55
3.54
3.24
2.68
1.97
1.24
0.56
-0.12
-0.90
-1.85
-3.00
-4.33
-5.77
-7.26
-8.77
-10.25
-11.60
-12.72
-13.48
-13.85
-13.85
-13.60
-13.19
-12.66
-12.01
-11.13
-9.95
-8.46
-6.75
-4.88
-2.93
-0.96
1.02
2.94
4.72
6.23
7.37
8.05
8.34
8.34
8.19
8.02
7.82
7.57
7.18
6.63
5.95
5.27
4.66
4.19
3.83
3.51
3.21
2.93
2.68
2.47
2.21
1.78
1.05
0.02
-1.25
-2.59
-3.87
-5.06
-6.20
-7.38
-8.68
-10.07
-11.43
-12.62
-13.49
-13.95
-13.94
-13.48
-12.62
-11.41
-9.89
-8.09
-6.07
-3.84
-1.54
0.72
2.78
4.51
5.90
7.03
7.99
8.78
9.34
9.51
9.19
8.41
7.36
6.29
5.41
4.86
4.55
4.34
4.02
3.48
2.67
1.61
0.40
-0.93
-2.29
-3.62
-4.81
-5.79
-6.50
-6.92
-7.09
-7.11
-7.04
-6.88
-6.64
-6.34
-6.07
-6.03
-6.42
-7.39
-8.89
-10.69
-12.47
-13.88
-14.66
-14.69
-13.95
-12.46
-10.30
-7.59
-4.50
-1.25
1.90
4.76
7.22
9.23
10.76
11.82
12.35
12.36
11.85
10.87
9.52
7.91
6.15
4.39
2.86
1.77
1.32
1.56
2.41
3.58
4.74
5.61
6.07
6.10
5.83
5.36
4.67
3.70
2.40
0.73
-1.15
-3.14
-5.07
-6.92
-8.71
-10.53
-12.42
-14.37
-16.26
-17.89
-19.13
-19.79
-19.80
-19.06
-17.57
-15.39
-12.70
-9.75
-6.81
-4.07
-1.59
0.70
2.92
5.14
7.33
9.33
10.92
12.00
12.59
12.87
13.05
13.25
13.44
13.45
13.14
12.44
11.50
10.56
9.87
9.49
9.34
9.21
8.84
8.11
7.00
5.71
4.47
3.50
2.86
2.50
2.26
1.93
1.37
0.59
-0.38
-1.48
-2.75
-4.27
-6.11
-8.23
-10.48
-12.59
-14.30
-15.41
-15.82
-15.59
-14.75
-13.41
-11.66
-9.62
-7.34
-4.96
-2.58
-0.34
1.64
3.27
4.49
5.35
5.92
6.37
6.81
7.32
7.88
8.41
8.78
8.90
8.75
8.37
7.84
7.25
6.65
6.06
5.46
4.83
4.21
3.67
3.30
3.12
3.09
3.03
2.78
2.17
1.15
-0.16
-1.61
-3.07
-4.49
-5.98
-7.68
-9.64
-11.90
-14.37
-16.84
-19.08
-20.81
-21.75
-21.68
-20.48
-18.18
-15.01
-11.25
-7.20
-3.15
0.71
4.27
7.46
10.23
12.58
14.47
15.90
16.82
17.21
17.09
16.51
15.62
14.58
13.52
12.52
11.62
10.87
10.32
10.06
10.07
10.24
10.36
10.22
9.65
8.62
7.22
5.68
4.20
2.91
1.79
0.77
-0.27
-1.41
-2.69
-4.09
-5.58
-7.14
-8.78
-10.57
-12.50
-14.59
-16.68
-18.61
-20.13
-21.00
-21.01
-19.98
-17.85
-14.71
-10.83
-6.55
-2.30
1.55
4.80
7.41
9.50
11.24
12.77
14.13
15.26
16.08
16.52
16.54
16.22
15.71
15.09
14.45
13.79
13.09
12.34
11.57
10.87
10.33
9.98
9.75
9.49
9.05
8.34
7.39
6.32
5.22
4.08
2.84
1.37
-0.37
-2.29
-4.25
-6.08
-7.72
-9.18
-10.62
-12.14
-13.81
-15.56
-17.24
-18.66
-19.61
-19.84
-19.18
-17.51
-14.83
-11.30
-7.14
-2.68
1.76
5.86
9.39
12.22
14.29
15.63
16.27
16.22
15.51
14.20
12.39
10.30
8.15
6.14
4.46
3.18
2.34
1.97
2.06
2.55
3.26
3.99
4.49
4.65
4.47
3.99
3.35
2.59
1.74
0.73
-0.50
-1.99
-3.71
-5.57
-7.46
-9.29
-11.00
-12.57
-14.03
-15.38
-16.56
-17.52
-18.09
-18.14
-17.50
-16.09
-13.92
-11.13
-7.90
-4.51
-1.15
2.07
5.05
7.75
10.03
11.74
12.78
13.14
12.97
12.49
11.91
11.26
10.58
9.80
8.94
8.08
7.38
6.92
6.65
6.49
6.19
5.57
4.62
3.35
1.95
0.61
-0.56
-1.52
-2.35
-3.22
-4.27
-5.52
-6.95
-8.41
-9.82
-11.17
-12.53
-13.95
-15.42
-16.79
-17.82
-18.25
-17.94
-16.84
-15.00
-12.53
-9.49
-6.05
-2.37
1.28
4.64
7.50
9.77
11.47
12.77
13.83
14.77
15.64
16.41
17.02
17.35
17.31
16.87
16.05
14.98
13.83
12.76
11.94
11.39
11.07
10.80
10.38
9.60
8.33
6.50
4.12
1.34
-1.68
-4.75
-7.69
-10.39
-12.82
-15.00
-17.02
-19.04
-21.15
-23.47
-26.02
-28.69
-31.30
-33.55
-35.11
-35.59
-34.79
-32.64
-29.30
-25.06
-20.27
-15.27
-10.32
-5.63
-1.33
2.40
5.41
7.58
8.87
9.40
9.38
9.15
9.03
9.25
9.82
10.59
11.33
11.82
11.99
11.86
11.53
11.04
10.37
9.40
8.06
6.44
4.71
3.09
1.70
0.53
-0.50
-1.45
-2.35
-3.16
-3.86
-4.50
-5.22
-6.23
-7.66
-9.56
-11.85
-14.38
-16.94
-19.28
-21.06
-21.85
-21.30
-19.21
-15.66
-10.95
-5.54
0.09
5.54
10.53
14.87
18.47
21.20
22.98
23.78
23.65
22.74
21.26
19.41
17.49
15.75
14.37
13.45
12.94
12.69
12.50
12.19
11.72
11.18
10.68
10.28
9.85
9.19
8.04
6.27
3.90
1.12
-1.82
-4.66
-7.22
-9.38
-11.05
-12.27
-13.12
-13.83
-14.68
-15.89
-17.52
-19.38
-21.09
-22.20
-22.34
-21.29
-19.12
-16.07
-12.45
-8.65
-4.94
-1.53
1.41
3.75
5.44
6.45
6.88
6.93
6.85
6.89
7.20
7.83
8.73
9.82
11.04
12.29
13.54
14.67
15.60
16.25
16.52
16.39
15.84
14.83
13.33
11.30
8.64
5.40
1.65
-2.34
-6.21
-9.62
-12.33
-14.28
-15.54
-16.28
-16.64
-16.68
-16.39
-15.65
-14.37
-12.45
-9.91
-6.80
-3.29
0.39
3.98
7.26
