1671436750.00
64.000000
-0.00
-0.00
-0.00
-0.00
-0.00
-0.00
-0.00
-0.00
-0.00
-0.00
0.00
0.01
0.01
-0.00
-0.03
-0.05
-0.05
0.00
0.13
0.36
0.66
1.01
1.37
1.72
2.06
2.40
2.79
3.24
3.80
4.42
5.06
5.66
6.20
6.68
7.15
7.68
8.31
9.14
10.09
11.04
11.88
12.56
13.14
13.76
14.65
15.96
17.91
20.32
22.90
25.38
27.58
29.57
31.68
34.32
37.81
42.54
48.15
54.10
59.83
64.97
69.58
74.14
79.34
85.71
93.76
103.00
112.62
121.73
129.77
136.75
143.30
150.75
157.77
166.64
177.95
191.79
206.97
220.57
228.25
225.36
208.53
176.87
132.76
80.05
23.07
-34.94
-92.44
-149.16
-205.23
-260.37
-313.74
-363.88
-409.83
-450.91
-486.50
-515.72
-537.20
-549.18
-549.90
-538.27
-514.08
-478.51
-433.67
-382.19
-326.70
-269.47
-212.20
-156.16
-102.39
-51.74
-5.20
36.36
72.28
102.29
126.52
145.50
159.91
170.48
177.82
182.33
184.31
183.97
181.59
177.52
172.18
165.96
159.22
152.20
145.04
137.83
130.59
123.38
116.25
109.29
102.55
96.10
89.96
84.15
78.69
73.58
68.83
64.45
60.46
56.84
53.61
50.75
48.25
46.13
44.38
42.99
41.97
41.28
40.89
40.73
40.69
40.65
40.44
39.89
38.81
37.07
34.55
31.20
27.03
22.11
16.57
10.63
4.54
-1.46
-7.09
-12.14
-16.43
-19.86
-22.36
-23.94
-24.65
-24.61
-23.91
-22.69
-21.05
-19.10
-16.91
-14.54
-12.02
-9.42
-6.76
-4.10
-1.46
1.14
3.72
6.26
8.79
11.36
13.94
16.53
19.16
21.84
24.62
27.55
30.65
33.99
37.65
41.54
45.61
49.83
54.19
58.68
63.34
68.17
73.22
78.59
84.12
89.71
95.34
100.98
106.59
112.13
117.60
122.97
128.31
133.34
137.92
141.91
145.15
147.39
148.26
147.20
143.42
138.28
132.30
125.83
119.11
112.33
105.59
98.87
92.14
85.36
78.59
71.66
64.57
57.41
50.25
43.05
35.63
27.76
19.26
10.18
0.63
-9.00
-18.14
-26.39
-33.63
-40.19
-46.64
-53.57
-61.22
-69.50
-77.80
-85.36
-91.61
-96.61
-101.05
-106.04
-112.67
-121.49
-132.37
-144.51
-156.91
-168.84
-180.16
-191.40
-203.52
-217.71
-235.28
-257.48
-284.91
-316.60
-349.19
-376.96
-393.12
-392.19
-372.35
-336.49
-291.44
-245.47
-205.57
-175.57
-155.90
-144.49
-138.21
-133.76
-128.13
-118.73
-103.78
-83.03
-58.25
-33.20
-12.62
-0.60
1.13
-5.95
-17.42
-27.45
-30.98
-25.56
-12.14
5.58
22.91
36.17
43.93
46.98
47.23
46.39
45.08
43.12
40.26
37.14
35.35
36.91
43.07
53.51
66.18
77.64
83.92
81.30
67.25
41.59
7.49
-28.18
-55.99
-66.55
-54.04
-19.02
30.85
82.84
123.36
142.46
136.98
111.04
73.88
36.36
7.32
-8.61
-11.32
-3.75
10.06
26.60
43.32
58.08
68.37
71.26
64.14
46.09
18.94
-12.70
-42.66
-65.12
-76.43
-76.21
-67.15
-53.75
-40.72
-31.28
-26.38
-24.86
-24.40
-22.90
-19.54
-14.98
-10.75
-8.26
-8.00
-9.34
-10.86
-11.29
-10.21
-8.41
-7.31
-8.08
-10.65
-13.32
-13.31
-8.03
3.58
20.24
38.27
52.52
57.89
51.18
32.79
7.41
-16.66
-29.86
-24.87
0.17
40.38
85.64
124.47
148.52
155.42
148.61
134.52
118.65
102.91
85.60
63.70
36.21
5.92
-20.99
-37.89
-41.27
-33.08
-20.07
-10.68
-11.02
-22.18
-39.95
-57.22
-66.98
-64.49
-48.01
-18.17
22.49
69.54
116.34
154.61
176.20
175.93
153.81
115.37
69.71
26.25
-8.19
-30.41
-40.24
-38.99
-28.43
-10.86
10.23
29.58
41.19
40.28
25.67
0.72
-27.60
-51.62
-66.29
-71.20
-70.39
-70.20
-76.32
-91.26
-113.86
-140.27
-166.00
-187.59
-203.18
-212.10
-214.26
-209.86
-199.59
-184.91
-167.83
-150.15
-132.54
-114.08
-92.66
-66.35
-34.74
0.42
35.79
68.12
95.67
118.65
138.40
155.68
169.62
177.85
177.85
168.69
152.03
131.61
111.73
95.86
85.81
82.19
85.29
95.36
112.08
133.60
156.13
174.61
184.32
182.45
168.90
145.82
116.45
84.03
51.32
20.84
-4.79
-22.85
-31.26
-29.60
-19.84
-6.33
5.38
10.28
5.71
-7.76
-26.47
-45.20
-58.93
-64.57
-61.63
-51.92
-38.59
-25.07
-14.23
-7.75
-5.92
-7.62
-10.66
-12.48
-11.12
-5.92
2.20
11.08
18.15
21.29
19.35
12.60
2.60
-7.94
-15.59
-17.02
-9.96
5.87
28.26
52.77
73.70
85.81
85.97
74.32
54.35
31.73
12.31
0.14
-3.73
-1.05
4.93
11.07
15.64
18.48
20.41
22.26
24.15
25.41
24.76
20.63
11.41
-4.24
-26.79
-55.14
-86.10
-114.74
-135.42
-143.59
-137.39
-118.48
-91.49
-62.33
-36.05
-15.25
0.04
11.39
20.23
26.75
29.94
28.66
22.96
14.64
6.68
1.86
1.36
4.13
7.43
8.07
3.88
-5.47
-18.24
-31.20
-40.63
-43.52
-38.68
-27.20
-12.27
2.01
12.09
16.32
15.54
12.52
10.57
11.94
16.81
23.27
28.31
29.23
24.83
15.89
4.66
-6.30
-15.24
-21.82
-26.98
-32.13
-38.35
-45.80
-53.67
-60.38
-64.09
-63.18
-56.57
-44.19
-27.07
-7.30
12.23
28.10
36.72
34.98
21.46
-2.07
-30.13
-54.46
-67.11
-64.20
-48.35
-28.20
-15.00
-17.58
-38.79
-75.28
-120.52
-168.75
-217.12
-265.19
-312.06
-354.18
-385.54
-400.25
-395.71
-374.27
-342.75
-310.18
-284.56
-270.64
-268.86
-275.85
-285.90
-293.29
-294.03
-287.00
-273.97
-258.30
-243.10
-229.78
-217.75
-205.51
-191.93
-177.15
-162.35
-148.80
-136.78
-125.30
-112.73
-97.70
-79.79
-59.90
-39.78
-21.22
-5.36
7.66
18.50
28.18
37.59
47.15
56.72
65.97
74.62
82.56
90.01
97.33
104.76
112.41
120.30
128.51
137.26
146.97
158.10
170.90
185.40
201.30
218.14
235.65
253.70
272.40
292.16
313.88
338.76
367.91
401.43
437.43
471.87
499.25
514.44
514.56
500.02
474.11
441.46
406.26
371.27
338.18
307.88
281.08
258.45
240.28
226.11
214.82
205.01
195.44
186.34
178.16
171.27
165.78
161.73
159.35
159.45
163.00
170.62
184.22
204.31
229.82
258.26
286.28
310.69
329.61
343.05
352.88
365.28
385.63
416.39
455.79
498.26
536.58
565.08
581.61
587.83
592.19
602.76
624.90
659.88
705.39
757.26
811.72
866.12
889.85
859.80
761.07
593.63
374.26
130.97
-107.25
-318.35
-491.04
-623.47
-716.00
-772.73
-799.37
-802.23
-787.75
-762.60
-731.34
-699.37
-671.02
-646.28
-624.75
-606.32
-591.81
-582.69
-580.10
-582.11
-583.18
-575.31
-549.26
-500.43
-431.05
-349.88
-266.38
-192.27
-136.02
-100.92
-85.23
-83.39
-89.25
-97.49
-104.30
-107.45
-106.70
-102.80
-97.31
-91.97
-87.96
-86.25
-87.52
-92.20
-100.32
-111.38
-123.58
-134.05
-139.76
-138.58
-129.92
-114.79
-95.36
-74.27
-54.25
-37.39
-24.96
-17.23
-13.23
-10.56
-5.45
6.46
28.80
62.57
104.97
149.36
186.75
208.72
210.29
191.58
157.46
115.53
73.32
36.08
5.90
-18.13
-38.77
-59.49
-83.29
-111.93
-145.26
-181.10
-215.70
-244.71
-264.54
-273.35
-271.44
-260.82
-244.49
-225.65
-207.18
-191.57
-180.94
-176.83
-179.57
-187.72
-197.83
-205.01
-204.25
-191.82
-166.12
-127.54
-77.85
-19.80
42.71
103.97
156.53
192.46
205.93
195.73
166.45
127.12
88.13
57.68
39.69
33.79
36.93
45.35
55.74
65.55
72.59
75.05
71.91
63.62
52.25
40.94
32.78
29.66
31.63
37.16
44.05
50.29
54.74
57.12
57.73
57.04
55.44
53.02
49.56
44.50
37.09
26.77
13.63
-1.18
-15.47
-26.67
-32.70
-32.71
-27.42
-18.76
-9.08
-0.58
5.13
6.93
4.11
-3.63
-16.09
-32.21
-50.07
-67.25
-81.43
-91.20
-96.34
-97.69
-96.51
-93.80
-89.89
-84.56
-77.53
-68.93
-59.50
-50.37
-42.57
-36.62
-32.33
-29.10
-26.31
-23.68
-21.27
-19.40
-18.47
-18.94
-21.33
-26.09
-33.32
-42.35
-51.51
-58.37
-60.57
-56.79
-47.61
-35.27
-22.71
-12.27
-4.79
0.59
5.62
11.83
19.60
27.64
33.87
36.46
34.79
29.77
23.63
19.31
19.70
27.12
42.21
64.20
90.87
118.72
143.34
160.24
165.84
158.54
139.30
110.64
76.54
41.30
8.86
-18.07
-37.88
-50.05
-54.84
-48.15
-27.50
7.46
53.96
106.85
160.30
209.92
253.37
289.63
318.11
337.43
346.66
345.38
334.03
313.83
286.88
255.45
221.21
184.90
145.71
102.22
52.83
0.33
-52.08
-100.78
-142.54
-175.31
-199.03
-216.56
-233.24
-255.37
-287.91
-332.05
-383.24
-431.76
-465.68
-474.72
-453.73
-403.82
-331.57
-246.70
-159.97
-80.86
-16.17
30.65
59.85
74.77
80.42
81.58
80.82
77.18
66.70
44.28
6.43
-46.80
-110.74
-177.15
-236.78
-282.36
-310.98
-324.49
-328.04
-327.23
-325.87
-325.13
-324.11
-321.53
-316.79
-310.17
-302.11
-292.44
-280.38
-265.28
-247.42
-228.47
-211.04
-197.90
-190.74
-189.50
-192.39
-196.60
-199.27
-198.29
-192.81
-183.08
-169.93
-154.16
-136.15
-115.74
-92.53
-66.31
-37.34
-6.40
25.35
56.65
86.41
113.82
138.27
159.32
176.64
190.04
199.64
205.92
209.69
211.91
213.45
214.85
216.34
217.85
219.33
220.87
222.81
225.82
230.93
239.53
252.94
271.75
294.98
319.52
340.35
351.79
349.24
330.71
297.51
253.93
205.91
159.61
120.24
91.37
74.76
70.35
76.49
90.08
107.13
123.43
135.48
141.32
140.83
135.54
127.90
120.20
113.79
108.90
104.96
101.33
97.71
94.20
90.87
87.38
83.05
77.25
69.87
61.64
53.50
46.49
41.41
39.00
40.01
45.12
54.31
66.27
78.29
86.71
88.85
84.31
75.50
66.54
61.07
60.26
62.13
63.06
59.23
49.73
36.93
25.60
20.20
22.44
30.12
38.05
41.16
34.81
18.77
-3.64
-26.14
-42.00
-46.06
-36.05
-12.95
20.87
57.78
91.06
115.06
128.36
133.81
137.41
145.72
162.75
190.17
219.64
242.60
251.22
244.10
226.39
207.26
195.62
196.29
211.73
233.68
256.46
276.70
297.80
328.15
376.97
449.76
524.71
618.44
714.86
801.33
846.21
827.59
738.60
589.89
405.82
214.27
39.11
-114.00
-244.92
-349.45
-430.54
-488.44
-522.47
-534.61
-531.45
-520.29
-513.69
-519.24
-540.06
-574.23
-616.55
-661.10
-702.93
-737.72
-759.04
-762.90
-744.71
-704.09
-646.52
-582.37
-523.35
-478.55
-450.64
-434.24
-421.01
-401.98
-372.35
-332.58
-286.18
-235.97
-183.38
-128.67
-71.89
-14.71
40.33
90.94
136.81
180.62
228.94
287.68
358.68
437.55
514.28
576.86
615.99
628.53
610.66
567.23
508.12
444.35
384.17
331.07
284.91
244.47
211.67
184.99
163.93
147.36
133.33
119.66
104.80
88.25
71.16
54.84
39.27
24.63
10.07
-5.81
-24.24
-45.65
-69.48
-94.77
-121.19
-149.95
-182.45
-220.81
-267.11
-322.15
-384.19
-448.38
-507.33
-553.04
-579.41
-583.07
-564.59
-527.57
-476.87
-416.84
-350.16
-277.65
-199.01
-114.10
-23.95
67.96
155.46
230.70
286.42
318.64
328.28
320.92
304.36
285.44
267.83
251.72
235.53
218.12
200.15
183.45
169.44
157.60
145.27
128.98
106.26
76.67
41.38
2.28
-39.03
-81.18
-121.90
-157.44
-182.80
-193.27
-186.49
-163.48
-127.80
-83.38
-32.72
23.32
83.71
145.12
201.20
244.33
269.11
275.36
268.59
257.52
249.91
249.50
255.22
263.02
268.82
270.77
269.47
266.53
262.66
256.63
245.72
227.29
200.32
166.12
128.08
90.12
55.14
23.89
-5.08
-34.43
-66.52
-102.11
-139.85
-177.02
-210.81
-239.80
-264.65
-287.83
-312.57
-341.64
-376.54
-417.02
-461.07
-505.07
-543.67
-570.30
-578.95
-566.53
-534.68
-489.97
-441.70
-398.51
-365.13
-341.20
-322.34
-303.02
-279.47
-251.16
-220.12
-189.03
-159.58
-131.94
-105.40
-79.74
-55.96
-35.94
-21.29
-12.23
-7.38
-4.45
-1.34
2.79
7.08
9.49
8.07
1.97
-7.92
-18.87
-27.06
-28.50
-20.45
-2.19
24.61
56.83
91.49
127.50
166.48
211.95
266.97
331.19
399.52
463.06
512.19
540.31
546.26
534.32
511.93
486.38
461.99
439.62
417.85
395.17
371.41
347.76
325.34
304.33
283.61
261.57
237.24
211.06
184.74
160.65
140.49
123.95
109.28
93.96
75.78
53.67
27.97
-0.08
-28.71
-56.18
-83.12
-110.66
-140.19
-173.40
-211.92
-256.84
-307.34
-359.07
-404.36
-438.59
-459.61
-469.93
-476.26
-486.70
-506.87
-537.44
-574.24
-610.09
-644.78
-679.61
-714.94
-747.23
-769.12
-773.49
-758.58
-730.72
-700.95
-688.09
-703.08
-744.62
-800.51
-854.79
-895.98
-921.30
-935.52
-906.38
-817.98
-668.10
-472.17
-257.61
-52.61
123.02
260.85
351.89
409.16
439.82
449.67
443.84
427.88
407.80
389.00
376.01
370.77
375.45
384.47
392.70
397.08
397.31
395.14
392.82
391.86
392.48
395.42
396.45
392.23
381.60
366.21
349.65
335.87
327.76
326.23
331.39
339.73
348.09
354.96
361.23
369.83
384.71
409.53
446.09
493.63
546.62
596.43
633.20
648.77
639.15
605.66
554.15
492.47
427.83
364.44
303.17
242.44
179.79
113.66
44.77
-22.81
-81.98
-123.74
-139.98
-126.87
-87.58
-32.43
24.24
68.96
93.98
99.13
90.31
75.23
59.62
45.21
30.47
13.08
-8.20
-33.34
-62.31
-96.21
-136.89
-185.00
-237.31
-286.33
-322.42
-337.87
-330.61
-305.33
-271.40
-238.42
-212.43
-193.67
-178.30
-161.64
-141.15
-117.91
-95.44
-77.78
-66.46
-59.57
-52.11
-38.64
-15.85
15.51
51.00
84.17
108.80
121.81
123.49
117.53
108.49
100.11
94.43
91.68
91.25
91.90
93.19
88.64
73.29
44.46
3.34
-45.11
-94.55
-136.26
-167.77
-187.53
-193.73
-183.57
-154.16
-104.42
-35.59
47.48
135.76
216.98
279.77
316.63
327.11
317.06
295.89
272.31
251.08
232.11
212.05
187.94
158.74
125.55
89.78
51.73
10.98
-31.63
-71.89
-102.26
-114.10
-102.08
-67.71
-19.86
28.48
65.28
83.93
84.45
71.52
50.99
26.81
0.40
-27.96
-57.53
-86.19
-111.45
-132.19
-149.76
-167.89
-191.68
-225.98
-273.89
-335.26
-405.99
-478.22
-542.02
-588.03
-610.56
-609.46
-589.75
-559.15
-524.76
-490.57
-457.06
-422.81
-386.69
-349.38
-313.20
-280.62
-252.76
-228.60
-205.67
-181.40
-154.47
-125.28
-95.93
-69.00
-46.51
-29.03
-15.41
-3.37
9.68
25.47
44.27
64.79
84.80
102.25
116.31
127.84
139.22
153.43
172.76
198.22
229.42
265.16
303.92
343.79
382.11
415.20
438.65
448.36
442.03
420.22
386.28
345.12
301.38
258.23
217.35
180.01
148.17
124.74
112.41
111.71
119.67
130.17
136.18
132.77
119.40
99.96
80.67
66.52
58.35
52.08
40.27
15.70
-24.73
-77.70
-133.74
-180.19
-205.72
-204.34
-177.46
-132.84
-81.13
-31.43
11.85
49.40
84.83
121.27
159.03
195.54
226.89
250.08
264.19
269.82
267.81
258.11
239.60
211.17
173.09
127.62
78.38
29.03
-18.13
-62.68
-105.54
-147.93
-190.11
-230.68
-266.62
-293.73
-307.74
-305.69
-287.23
-255.09
-214.50
-171.52
-131.23
-96.56
-68.42
-46.84
-32.19
-25.68
-28.68
-41.32
-61.10
-82.92
-100.38
-107.66
-101.48
-81.60
-49.72
-7.87
42.55
100.29
162.58
223.76
275.30
307.94
315.19
296.20
256.20
204.32
149.65
97.60
48.56
-0.69
-53.84
-111.94
-172.13
-228.54
-274.65
-305.77
-320.29
-319.58
-306.73
-285.19
-257.47
-225.12
-189.17
-150.81
-112.06
-75.56
-43.88
-18.54
1.04
18.07
38.06
66.94
108.38
160.98
217.34
265.60
293.53
292.88
262.33
207.36
137.75
64.47
-2.77
-56.33
-90.97
-104.58
-99.75
-84.57
-71.34
-72.36
-94.45
-135.23
-183.59
-224.39
-245.07
-240.38
-213.39
-172.30
-125.89
-79.98
-36.43
5.48
47.10
88.97
130.52
170.59
207.94
241.41
269.77
291.47
304.54
307.08
297.86
277.56
249.59
220.13
196.93
186.98
194.09
217.25
251.13
287.74
319.14
339.64
346.66
340.45
322.96
297.32
266.77
234.93
204.56
177.21
152.91
130.32
107.13
80.74
49.76
14.39
-22.60
-57.06
-84.79
-103.05
-111.97
-114.62
-115.91
-119.64
-127.53
-137.77
-146.94
-151.52
-149.23
-139.83
-124.72
-106.47
-86.72
-74.07
-75.04
-93.68
-129.46
-177.09
-229.06
-273.66
-307.25
-327.76
-332.89
-319.02
-283.59
-227.70
-154.97
-70.93
15.15
94.13
159.66
208.31
240.34
258.41
266.57
268.66
266.38
258.22
239.74
206.46
156.09
91.35
19.86
-47.92
-102.42
-138.72
-157.76
-164.74
-165.36
-163.34
-159.40
-152.68
-142.68
-130.47
-118.57
-109.61
-104.78
-103.11
-102.31
-99.77
-94.06
-85.40
-75.39
-66.13
-59.29
-55.35
-53.45
-52.02
-49.52
-45.17
-39.18
-32.52
-26.39
-21.65
-18.50
-16.44
-14.67
-12.43
-9.35
-5.53
-1.38
2.69
6.33
9.52
12.36
15.02
17.57
19.97
22.21
24.32
26.54
29.03
31.98
35.25
38.43
40.86
42.01
41.61
39.83
37.13
33.86
30.08
25.34
18.79
9.55
-2.83
-18.01
-34.79
-50.98
-65.30
-76.73
-85.10
-90.89
-94.93
-98.15
-101.61
-106.75
-113.94
-122.55
-129.84
-131.38
-122.59
-101.21
-69.01
-31.90
2.22
26.67
38.47
39.26
33.77
27.18
22.80
21.25
21.19
20.79
18.92
15.57
11.42
7.42
4.33
2.57
2.28
3.77
7.45
13.25
19.77
24.12
22.76
13.40
-3.10
-22.00
-36.10
-38.76
-27.01
-3.12
26.30
53.11
70.87
76.95
72.76
62.38
50.53
40.84
34.95
32.59
32.28
32.15
30.90
28.27
24.74
20.94
17.06
12.72
7.53
1.60
-4.05
-8.02
-9.24
-7.73
-4.55
-1.40
0.31
0.17
-1.23
-2.69
-3.01
-1.58
1.42
5.09
8.24
9.81
9.31
6.92
3.46
0.09
-2.05
-2.24
-0.42
2.82
6.48
9.53
11.28
11.54
10.64
9.44
9.15
10.95
15.68
23.46
33.52
44.36
54.45
61.98
65.65
65.14
61.08
54.66
47.13
39.34
31.68
24.19
16.88
10.06
4.29
0.20
-1.91
-2.27
-1.64
-1.05
-1.43
-3.33
-6.66
-10.87
-15.23
-19.19
-22.52
-25.31
-27.74
-29.92
-31.80
-33.10
-33.52
-32.94
-31.52
-29.73
-28.12
-27.11
-26.87
-27.32
-28.21
-29.19
-29.83
-29.48
-27.39
-22.79
-15.34
-5.36
6.01
17.14
26.44
32.92
36.42
37.51
37.02
35.61
33.48
30.53
26.66
22.00
17.07
12.61
9.21
7.13
6.21
6.00
6.05
6.11
6.13
6.22
6.36
6.36
5.94
4.75
2.68
-0.10
-3.17
-5.98
-8.09
-9.31
-9.72
-9.62
-9.37
-9.20
-9.18
-9.20
-9.14
-8.85
-8.26
-7.34
-6.10
-4.61
-3.00
-1.43
-0.09
0.99
2.02
3.58
6.61
12.11
20.88
33.11
48.19
64.83
81.37
96.32
108.76
118.54
126.16
132.40
138.01
143.50
149.19
155.36
162.18
169.50
176.63
182.19
184.51
182.23
175.01
163.76
150.41
137.15
125.58
116.35
109.20
103.45
98.51
94.16
90.33
86.93
83.48
79.29
73.60
65.96
56.31
44.94
32.25
18.46
3.45
-13.18
-31.89
-52.99
-76.44
-101.91
-128.96
-157.18
-186.19
-215.59
-244.89
-273.74
-302.48
-332.65
-366.75
-406.88
-452.73
-500.07
-540.82
-565.22
-565.28
-537.66
-484.71
-413.18
-331.87
-249.63
-174.43
-112.97
-70.06
-47.30
-41.59
-44.89
-46.30
-36.03
-9.58
30.10
73.88
110.42
130.67
131.03
113.82
85.33
52.80
21.91
-4.45
-25.61
-41.99
-53.95
-61.35
-63.65
-60.46
-52.08
-39.82
-26.17
-13.80
-5.10
-1.85
-5.10
-14.86
-29.82
-47.53
-64.82
-79.46
-89.75
-95.26
-96.95
-97.03
-98.00
-101.59
-108.35
-117.72
-129.77
-143.74
-158.88
-174.97
-192.52
-211.81
-231.62
-248.73
-258.47
-257.71
-243.45
-213.75
-168.05
-107.91
-36.60
41.10
118.67
198.99
275.70
339.55
384.24
410.66
424.36
431.38
435.47
437.08
435.51
428.40
415.96
397.45
371.88
337.45
292.90
238.97
178.52
117.62
63.50
24.05
2.77
2.99
19.67
42.22
59.52
64.37
57.18
48.73
52.21
74.52
112.88
156.44
189.99
208.75
213.10
205.03
185.00
154.08
110.49
52.99
-12.10
-74.21
-122.83
-152.00
-161.35
-167.56
-176.03
-189.69
-210.08
-238.09
-264.77
-285.71
-299.38
-306.42
-308.83
-307.19
-303.62
-299.68
-295.72
-291.26
-287.00
-284.31
-284.96
-290.90
-302.42
-321.16
-348.74
-385.17
-427.59
-470.61
-505.91
-524.60
-520.42
-490.66
-439.37
-375.05
-307.01
-242.13
-184.15
-133.46
-89.09
-50.32
-14.73
19.03
51.55
83.08
113.92
144.05
173.23
200.69
225.23
250.02
277.81
309.35
343.23
377.19
409.43
438.95
465.08
487.20
511.12
541.39
578.49
618.73
657.13
690.27
717.00
737.54
752.57
770.81
798.64
836.10
877.06
913.28
938.45
949.25
944.95
874.94
715.89
479.84
209.46
-48.14
-263.72
-428.72
-547.57
-629.38
-681.15
-705.43
-703.43
-679.73
-642.98
-602.65
-565.33
-534.54
-510.40
-493.55
-477.37
-456.61
-430.96
-403.67
-379.36
-361.36
-352.96
-354.56
-364.97
-377.60
-386.88
-390.54
-386.91
-375.27
-355.36
-331.35
-305.08
-277.17
-244.55
-205.64
-161.31
-110.33
-51.56
14.53
78.99
136.09
182.55
219.93
249.49
272.28
294.71
325.29
370.11
422.94
479.78
537.83
597.85
658.96
685.42
650.95
549.96
448.43
374.14
337.17
317.67
306.04
295.00
279.91
263.96
256.70
266.07
287.23
316.30
349.95
388.96
433.44
483.04
512.04
501.59
441.55
330.30
183.37
23.57
-125.66
-249.01
-340.24
-398.96
-426.38
-427.39
-412.29
-388.99
-363.05
-336.85
-313.04
-294.10
-280.79
-269.50
-256.44
-240.78
-222.94
-204.83
-188.38
-176.01
-169.38
-168.85
-171.75
-175.36
-178.48
-182.00
-188.09
-195.43
-202.65
-205.27
-197.08
-171.84
-129.82
-72.08
-5.49
59.24
111.48
143.22
151.37
137.86
108.90
72.92
38.57
11.74
-5.54
-14.30
-17.87
-19.68
-22.12
-26.35
-32.98
-42.83
-54.94
-70.18
-89.43
-113.55
-143.18
-178.82
-220.24
-265.37
-309.09
-344.03
-362.50
-358.61
-331.07
-283.51
-222.99
-157.20
-91.87
-29.61
29.21
84.65
136.39
183.09
223.94
259.79
293.28
327.21
362.24
395.56
420.89
431.17
420.89
389.59
342.91
290.73
243.31
207.16
183.49
168.03
154.23
134.19
101.82
54.63
-5.52
-72.65
-138.02
-191.82
-226.36
-238.19
-231.28
-214.66
-198.47
-190.21
-192.54
-203.90
-220.35
-238.06
-240.61
-215.83
-163.10
-94.23
-24.48
36.76
82.33
115.66
138.32
147.89
140.70
113.72
69.64
13.48
-48.31
-103.11
-140.75
-156.91
-156.47
-147.65
-138.39
-131.75
-126.72
-119.30
-105.55
-91.20
-75.57
-61.60
-50.93
-45.09
-43.14
-43.17
-42.08
-37.45
-29.78
-11.72
4.71
17.36
22.87
18.87
3.22
-23.37
-57.11
-91.89
-119.72
-135.99
-136.67
-123.15
-93.27
-54.07
-17.46
7.05
17.33
18.40
14.80
11.42
10.14
11.59
14.60
20.89
32.95
52.24
79.56
113.12
152.14
196.16
239.69
277.99
309.34
334.29
352.97
363.87
361.38
340.64
299.75
242.08
175.67
111.34
59.97
23.02
-1.42
-18.98
-34.71
-51.99
-71.99
-95.11
-121.53
-152.15
-188.36
-230.01
-276.67
-325.59
-365.40
-386.00
-382.41
-355.43
-311.41
-259.92
-201.58
-142.99
-90.86
-54.03
-28.37
-7.73
14.47
42.63
79.26
126.24
183.68
251.94
323.67
388.01
430.52
440.58
415.82
361.59
288.79
209.94
141.35
84.42
38.70
1.53
-29.51
-56.06
-80.26
-106.03
-136.72
-175.49
-225.71
-287.35
-359.69
-440.41
-514.67
-567.71
-590.18
-580.22
-542.31
-485.65
-419.69
-354.56
-297.06
-253.75
-220.73
-194.79
-173.56
-155.65
-141.54
-129.90
-118.67
-100.94
-72.36
-31.44
18.10
70.29
119.12
158.84
188.93
211.38
234.87
267.44
312.97
368.48
427.09
481.10
522.40
549.60
564.40
577.10
597.52
630.99
675.86
726.81
778.73
826.65
872.74
878.17
817.48
687.05
509.05
315.69
132.86
-9.62
-122.72
-216.62
-299.06
-369.37
-426.16
-468.28
-494.59
-500.10
-480.76
-442.05
-394.07
-350.86
-317.84
-293.45
-272.24
-249.73
-225.21
-201.92
-186.57
-181.00
-184.00
-188.90
-189.06
-181.02
-165.73
-147.14
-130.59
-121.33
-119.73
-123.46
-127.30
-126.53
-118.78
-104.66
-86.22
-66.43
-48.30
-32.30
-17.39
-1.51
16.66
36.60
56.10
72.25
82.06
83.57
77.16
65.03
50.31
35.99
23.78
14.41
8.17
5.20
6.16
12.67
27.06
51.87
89.42
138.32
192.55
245.47
289.99
319.42
328.08
312.23
271.62
210.82
138.97
67.84
8.26
-33.70
-57.80
-68.01
-69.47
-65.94
-59.06
-49.65
-38.75
-28.23
-20.46
-16.95
-17.18
-18.83
-18.83
-14.90
-6.97
2.86
11.30
15.22
13.11
5.88
-3.55
-11.59
-15.59
-15.06
-11.65
-8.26
-8.18
-13.95
-26.61
-45.20
-66.32
-83.93
-90.26
-77.84
-43.05
10.82
73.44
130.45
168.72
181.05
168.10
136.07
93.83
49.78
9.08
-26.50
-57.02
-82.71
-103.67
-120.24
-133.21
-142.75
-147.13
-143.00
-126.49
-96.03
-54.57
-9.71
28.78
52.75
58.69
47.89
23.70
-9.35
-46.29
-81.23
-107.82
-120.97
-119.37
-106.92
-91.60
-83.52
-87.75
-101.55
-115.56
-119.35
-107.07
-79.90
-44.12
-7.06
23.16
42.83
52.11
53.39
48.45
37.37
19.03
-6.65
-37.42
-73.44
-113.01
-153.70
-191.95
-224.79
-251.21
-272.77
-291.23
-283.65
-236.35
-150.64
-45.69
56.91
144.13
211.44
257.42
281.16
288.22
281.16
265.52
244.70
221.93
199.06
174.69
145.65
108.48
62.50
6.53
-56.01
-124.13
-195.12
-263.58
-304.23
-296.64
-236.26
-137.44
-42.04
41.26
112.41
174.86
235.43
294.12
344.00
375.55
381.96
362.02
324.51
278.83
234.39
197.73
170.10
146.99
122.49
93.27
60.22
29.42
4.01
-15.31
-30.02
-43.31
-59.62
-82.18
-112.40
-148.39
-184.56
-216.85
-242.72
-261.48
-274.40
-284.62
-295.82
-312.38
-336.12
-364.82
-393.66
-415.43
-422.38
-408.59
-372.53
-317.13
-250.51
-181.08
-115.05
-56.29
-7.18
30.27
54.51
64.61
74.13
93.42
127.38
172.56
220.85
264.50
298.38
320.44
330.11
329.35
317.62
294.74
261.52
219.68
170.44
113.12
54.66
2.17
-38.37
-66.11
-83.19
-92.54
-96.33
-96.01
-92.71
-87.23
-81.07
-75.28
-71.21
-69.18
-68.62
-68.61
-68.55
-68.29
-67.75
-68.10
-70.81
-77.43
-87.62
-98.29
-104.11
-99.39
-80.88
-49.63
-11.73
24.27
50.73
64.05
65.52
59.56
50.94
42.60
35.12
27.55
19.14
10.22
2.08
-4.17
-8.44
-11.75
-15.58
-21.11
-28.55
-36.82
-44.11
-48.53
-48.76
-44.46
-36.57
-25.79
-12.89
1.35
16.51
32.25
47.94
62.44
74.19
81.46
82.91
78.04
67.08
51.27
32.44
12.66
-6.12
-22.35
-34.87
-42.94
-45.95
-43.92
-36.99
-25.61
-10.49
7.44
27.04
47.18
64.99
79.95
91.61
100.00
105.25
107.60
107.41
105.11
101.13
95.95
90.24
84.07
77.69
71.22
64.65
57.93
50.96
43.60
35.82
29.25
22.79
16.10
9.12
1.86
-5.62
-13.28
-21.08
-28.84
-36.34
-43.72
-50.82
-57.56
-63.92
-69.93
-75.64
-81.19
-86.38
-91.12
-95.61
-99.81
-103.72
-107.38
-110.86
-114.27
-117.77
-121.07
-124.09
-127.02
-129.96
-133.10
-136.72
-141.13
-146.69
-153.79
-162.17
-171.76
-182.44
-193.93
-205.66
-216.77
-225.90
-231.11
-234.36
-235.42
-233.78
-229.05
-221.01
-209.74
-195.61
-179.22
-161.39
-143.20
-125.19
-108.19
-93.07
-80.53
-70.92
-64.07
-59.29
-55.52
-51.58
-45.99
-37.89
-27.06
-13.69
1.78
19.10
38.27
59.54
83.14
109.20
137.12
165.56
192.87
217.68
239.37
258.33
275.75
293.18
311.66
330.95
349.46
364.96
375.34
379.51
377.74
371.46
363.03
355.09
350.08
349.83
354.86
363.59
371.94
373.99
364.09
339.81
303.35
261.10
221.28
190.54
171.42
162.00
157.61
153.58
148.25
141.99
135.76
129.63
122.55
113.09
100.55
85.50
69.70
57.17
50.58
50.00
53.15
56.92
59.08
58.80
56.46
53.17
53.14
59.17
71.18
86.57
101.90
114.79
124.31
130.55
134.25
140.02
150.51
164.33
176.65
181.97
177.54
164.48
147.10
105.12
32.23
-64.44
-168.61
-265.07
-346.58
-411.48
-460.59
-495.09
-512.01
-510.12
-490.60
-458.53
-421.71
-388.02
-360.68
-339.09
-320.18
-300.63
-273.73
-235.57
-187.67
-135.75
-87.30
-45.15
-8.70
24.58
60.70
107.43
169.72
247.03
333.59
418.87
493.74
549.23
560.50
512.25
407.72
270.36
133.12
31.77
-31.87
-67.56
-88.68
-107.59
-130.92
-159.20
-189.54
-218.25
-242.39
-261.54
-273.64
-277.91
-275.32
-265.51
-248.23
-224.25
-196.27
-168.43
-145.96
-130.47
-121.43
-116.98
-113.21
-106.48
-95.13
-80.26
-64.90
-52.89
-45.52
-42.26
-41.57
-41.01
-38.53
-33.25
-25.70
-17.42
-10.45
-5.83
-3.89
-4.45
-6.58
-9.06
-10.80
-11.19
-10.17
-8.04
-4.93
-0.85
4.07
9.44
14.64
19.15
22.92
26.50
30.88
36.83
44.24
51.90
57.89
60.42
58.77
53.69
47.06
41.03
37.10
35.60
35.81
36.38
35.86
32.98
26.74
16.27
1.08
-18.61
-41.29
-64.04
-82.95
-94.29
-95.90
-88.10
-73.67
-56.73
-41.15
-29.12
-20.83
-15.09
-10.60
-6.95
-4.72
-4.77
-7.07
-10.17
-11.71
-9.83
-4.57
1.66
4.85
1.46
-9.70
-26.63
-44.78
-59.04
-65.75
-63.86
-54.58
-39.90
-21.20
1.11
26.78
54.37
80.67
101.42
112.83
113.33
104.32
89.54
73.42
59.36
48.67
41.01
35.36
30.68
26.22
21.40
15.77
8.96
0.80
-8.74
-19.28
-29.84
-39.58
-48.10
-55.74
-63.32
-72.03
-83.13
-97.70
-115.57
-134.32
-150.09
-158.46
-156.16
-142.00
-117.28
-84.48
-49.51
-19.60
0.56
9.97
11.15
7.30
1.11
-5.38
-10.55
-11.85
-8.59
-0.42
11.82
27.07
43.49
59.90
76.54
95.37
119.33
149.10
185.77
227.81
271.42
309.29
333.50
338.90
325.23
296.68
260.63
224.64
186.62
144.73
96.14
39.62
-23.00
-84.87
-142.27
-190.43
-222.65
-232.83
-214.18
-167.00
-100.48
-30.66
24.82
52.37
47.97
17.39
-30.32
-82.06
-127.08
-159.04
-175.20
-174.43
-157.31
-129.94
-99.26
-74.28
-61.74
-63.57
-74.70
-84.85
-82.18
-59.76
-17.42
35.69
85.35
120.86
138.76
142.47
138.54
132.48
127.26
124.71
126.30
133.42
148.17
167.81
185.07
190.70
177.19
143.02
94.12
41.60
-3.19
-33.59
-50.62
-62.38
-77.13
-100.97
-134.54
-173.54
-211.88
-244.99
-271.33
-285.96
-286.14
-270.80
-241.37
-201.28
-155.49
-109.40
-67.65
-33.22
-7.23
10.51
21.62
28.35
33.16
37.79
42.87
48.01
52.43
55.60
57.04
56.99
56.08
55.31
55.40
56.51
58.31
60.24
61.90
62.88
63.19
62.91
62.49
62.24
62.20
62.17
61.80
60.82
58.84
55.73
50.86
44.47
36.77
27.94
18.21
7.88
-2.71
-13.26
-22.26
-30.03
-36.57
-41.91
-46.12
-49.31
-51.63
-53.18
-54.02
-54.04
-53.55
-52.60
-51.35
-49.90
-48.29
-46.39
-43.89
-41.35
-37.62
-32.55
-26.26
-19.31
-12.43
-6.38
-1.62
1.85
4.49
7.06
9.68
12.17
13.92
14.18
12.31
8.32
3.12
-1.62
-4.04
-3.32
0.24
5.28
9.86
12.04
10.82
6.77
1.57
-2.43
-3.90
-2.93
-0.88
-0.08
-3.60
-14.37
-33.60
-59.69
-87.49
-109.34
-116.47
-101.53
-61.81
-1.72
67.79
132.96
181.69
207.89
212.17
198.69
173.81
147.32
127.95
119.61
120.99
127.67
136.24
145.06
154.10
163.36
171.31
175.13
171.98
160.67
141.25
116.49
89.74
64.08
40.80
18.71
-5.08
-34.50
-72.21
-121.70
-177.49
-233.87
-284.68
-325.63
-355.65
-375.98
-390.36
-402.65
-419.55
-445.60
-482.49
-527.30
-573.74
-614.06
-640.26
-648.19
-616.40
-540.52
-434.29
-322.81
-226.28
-151.89
-101.38
-63.81
-32.20
-3.19
21.78
43.35
63.99
87.78
117.84
154.33
195.64
237.61
276.93
309.44
333.80
351.65
366.78
382.76
401.04
421.33
440.92
457.32
467.82
472.22
472.70
472.58
474.17
477.51
481.26
482.89
480.72
473.52
461.22
444.41
423.71
399.23
370.59
337.74
301.09
262.14
222.88
185.51
151.92
122.97
98.26
76.27
55.21
33.69
10.93
-13.39
-39.21
-65.55
-89.92
-108.24
-116.16
-111.04
-93.81
-69.33
-44.87
-27.39
-20.95
-25.89
-39.64
-58.72
-80.37
-103.43
-127.92
-154.24
-182.76
-213.63
-247.18
-284.17
-325.90
-373.65
-427.78
-486.42
-544.70
-595.24
-630.01
-642.91
-631.89
-599.54
-551.84
-495.89
-437.76
-381.44
-329.21
-282.22
-240.84
-204.25
-169.77
-132.53
-86.58
-27.09
46.69
129.31
209.25
271.28
301.83
294.55
253.90
194.62
137.32
101.51
99.18
131.28
188.29
253.93
310.39
343.32
345.74
319.65
274.81
224.90
182.24
153.03
135.75
123.25
107.18
82.32
48.78
10.75
-26.57
-59.15
-84.38
-99.67
-101.58
-87.48
-58.00
-19.46
16.63
37.48
34.70
8.47
-31.79
-71.04
-95.65
-97.64
-76.70
-39.55
2.66
37.63
55.85
53.65
34.18
3.97
-28.11
-53.00
-63.50
-56.30
-32.54
2.99
43.55
81.70
107.21
111.62
92.27
54.03
6.65
-39.86
-79.12
-109.59
-134.10
-161.95
-203.09
-263.53
-343.18
-437.40
-539.41
-640.98
-732.80
-777.87
-749.36
-646.88
-500.09
-349.47
-224.05
-133.60
-73.44
-32.92
-4.23
16.40
27.81
29.38
24.70
20.07
21.29
31.79
52.99
82.00
112.46
137.81
154.81
165.16
173.08
182.62
196.37
215.35
239.12
264.59
287.43
304.44
315.73
322.82
327.70
332.28
338.25
346.95
358.76
373.73
392.71
418.31
451.15
488.27
523.21
548.00
555.99
544.24
514.30
471.18
422.00
370.18
314.77
252.71
182.62
107.47
34.65
-26.94
-81.51
-129.33
-171.71
-211.39
-250.77
-289.62
-324.49
-351.09
-367.03
-373.55
-373.00
-369.23
-365.03
-360.85
-355.29
-346.74
-334.88
-320.99
-307.08
-294.01
-282.64
-273.16
-264.83
-256.42
-247.01
-236.66
-226.03
-216.28
-207.69
-200.25
-193.32
-185.61
-175.42
-160.96
-143.78
-124.91
-105.41
-85.66
-65.73
-45.33
-23.94
-1.11
23.23
48.64
74.74
101.05
127.19
153.02
178.50
203.81
229.31
255.66
283.55
313.59
345.24
376.61
405.05
427.95
443.56
451.18
450.59
441.41
423.14
395.33
358.31
313.62
263.80
211.85
160.59
112.55
70.15
36.06
12.78
1.90
3.31
14.72
32.17
50.87
65.93
73.27
70.38
56.94
35.20
9.76
-13.58
-29.31
-33.76
-25.92
-7.14
19.36
49.15
76.89
97.03
104.99
98.88
80.89
57.04
34.96
20.65
15.68
16.69
17.47
12.12
-2.10
-24.15
-50.60
-78.12
-105.06
-131.56
-158.43
-185.79
-212.95
-239.38
-266.02
-295.78
-332.01
-375.98
-424.54
-469.66
-500.60
-507.99
-487.71
-442.68
-381.55
-314.99
-251.59
-195.37
-145.73
-99.36
-52.62
-2.98
51.03
110.29
175.25
244.99
316.20
382.79
437.23
472.85
486.49
479.68
457.85
427.97
396.02
365.61
338.02
313.30
291.35
272.09
254.83
237.67
217.29
189.74
151.74
102.08
42.84
-19.88
-76.50
-116.04
-129.40
-112.97
-70.66
-13.28
45.00
91.49
118.95
126.83
119.60
103.39
82.95
60.47
36.25
10.43
-15.64
-39.17
-56.67
-65.28
-63.95
-54.10
-39.16
-23.56
-11.21
-4.20
-2.23
-3.29
-4.86
-5.36
-4.84
-4.51
-5.65
-8.50
-11.87
-13.80
-12.68
-8.22
-1.65
4.82
9.17
10.45
9.03
6.42
4.45
4.39
6.60
10.45
14.84
18.74
21.71
24.08
26.71
30.56
36.27
43.92
52.97
62.57
71.81
80.04
86.90
92.35
96.41
99.11
100.29
99.61
96.74
91.42
83.67
73.83
62.53
50.50
38.41
26.60
15.11
3.61
-8.29
-20.94
-34.34
-48.17
-61.89
-75.04
-87.50
-99.65
-112.26
-126.16
-141.83
-159.12
-177.18
-194.79
-210.89
-225.10
-238.01
-251.07
-266.16
-284.67
-306.82
-331.66
-357.60
-383.15
-407.65
-431.46
-455.82
-482.76
-514.50
-552.91
-598.77
-650.69
-704.29
-752.11
-785.12
-795.46
-779.80
-740.09
-682.78
-616.32
-548.21
-483.20
-422.81
-366.40
-312.72
-262.59
-217.29
-177.84
-144.71
-117.86
-96.92
-80.82
-67.54
-54.37
-41.81
-30.26
-19.57
-9.07
1.77
13.08
24.90
37.33
50.59
60.02
62.74
59.69
55.56
55.81
63.18
76.00
88.50
93.24
78.54
40.29
-15.33
-74.62
-123.67
-154.97
-169.21
-172.77
-135.10
-45.95
83.31
224.50
350.19
445.54
507.67
540.63
551.60
548.56
532.47
504.92
469.54
431.33
394.59
361.27
331.49
305.10
282.33
258.97
232.64
203.84
175.28
149.77
128.57
111.59
98.18
88.34
79.06
68.35
56.02
43.30
31.58
21.33
12.19
3.90
-3.77
-12.43
-23.08
-35.68
-49.37
-63.17
-76.52
-89.35
-101.33
-112.19
-122.30
-131.73
-140.07
-146.45
-149.69
-148.33
-144.42
-138.66
-131.58
-123.61
-115.08
-106.25
-97.31
-88.47
-79.95
-72.07
-64.65
-57.65
-51.08
-44.96
-39.24
-33.88
-28.84
-24.16
-20.04
-16.33
-13.06
-10.23
-7.76
-5.38
-2.76
0.43
4.38
8.99
14.18
19.69
25.31
31.03
37.12
44.04
52.24
61.87
72.65
84.01
95.22
105.64
115.10
123.99
133.09
143.22
154.87
167.89
181.62
195.20
207.91
219.65
231.02
243.14
257.50
275.62
298.70
327.01
359.21
391.98
420.49
439.73
446.19
439.08
420.38
393.64
362.36
328.71
293.54
257.30
221.29
187.97
160.40
140.95
130.35
127.53
130.14
135.13
139.04
138.11
128.75
108.70
78.23
40.84
2.58
-29.95
-52.06
-62.65
-64.11
-60.75
-56.51
-53.44
-51.53
-49.92
-48.27
-47.72
-50.61
-59.31
-75.00
-97.21
-124.19
-153.62
-183.20
-210.60
-232.93
-246.65
-247.87
-233.17
-200.59
-150.28
-85.01
-10.36
65.38
132.16
180.08
201.94
195.58
164.60
116.75
60.89
4.31
-48.23
-93.59
-128.66
-150.11
-156.11
-148.44
-133.15
-118.49
-110.85
-111.49
-116.04
-117.45
-110.20
-93.75
-72.66
-53.79
-42.38
-39.28
-40.83
-41.08
-34.91
-20.43
0.03
20.61
34.06
34.59
20.42
-4.81
-32.96
-54.81
-64.09
-60.27
-48.46
-36.39
-30.44
-32.91
-41.86
-53.23
-63.63
-71.54
-76.63
-78.03
-73.22
-58.74
-32.56
3.79
44.94
83.39
112.75
130.43
138.47
142.09
146.91
156.16
169.66
184.72
197.58
205.18
206.26
201.59
193.23
183.85
175.57
169.22
164.73
160.05
151.76
136.53
113.14
83.69
53.78
29.86
16.33
15.04
23.94
39.03
56.91
76.61
98.66
124.18
151.90
177.68
198.10
210.93
216.43
216.86
215.07
212.29
208.88
203.91
186.08
151.32
103.48
52.84
10.35
-14.34
-24.54
-25.82
-23.21
-20.61
-18.30
-15.68
-12.48
-9.27
-7.16
-7.78
-11.33
-17.70
-26.60
-36.24
-45.04
-52.11
-57.44
-61.61
-65.69
-69.87
-74.22
-78.95
-83.33
-86.81
-89.14
-90.50
-91.37
-92.53
-94.32
-97.17
-101.63
-107.87
-116.02
-126.08
-137.70
-149.84
-160.98
-169.06
-172.71
-171.88
-167.91
-163.05
-159.41
-157.87
-157.65
-156.90
-153.73
-147.38
-138.79
-130.09
-123.51
-120.28
-120.27
-122.04
-123.71
-123.82
-122.03
-119.41
-118.78
-124.05
-139.33
-166.93
-205.21
-247.62
-283.37
-300.23
-288.31
-243.69
-170.33
-79.46
13.36
92.60
146.83
171.28
167.90
143.58
106.90
65.15
22.49
-20.16
-64.16
-111.69
-164.33
-222.03
-282.65
-341.65
-392.69
-428.88
-445.00
-439.15
-413.50
-372.94
-323.10
-268.13
-209.89
-149.10
-87.38
-28.44
22.38
60.25
83.10
92.50
92.99
90.01
87.82
88.35
90.78
92.18
88.20
74.16
46.44
4.44
-47.74
-101.59
-146.14
-171.41
-171.98
-148.86
-108.44
-59.26
-8.52
40.21
86.63
131.92
176.78
220.54
261.85
299.91
334.87
367.39
397.44
422.22
436.45
434.47
412.97
372.82
318.96
257.36
193.05
129.27
66.12
2.93
-58.08
-110.66
-146.23
-157.55
-143.82
-109.82
-62.46
-11.32
34.19
68.14
87.52
90.97
77.63
44.47
-9.41
-78.76
-157.47
-239.07
-315.22
-377.02
-416.77
-430.00
-420.37
-394.58
-356.58
-312.37
-267.65
-223.54
-177.27
-124.49
-44.66
65.27
170.62
253.55
311.21
340.34
342.47
323.90
293.46
259.47
222.64
182.14
140.88
99.55
57.06
12.91
-33.41
-82.67
-134.79
-191.40
-248.58
-294.91
-320.77
-322.39
-301.96
-266.80
-226.33
-176.92
-122.62
-69.70
-22.86
13.82
38.28
51.35
55.80
55.21
52.79
47.96
40.31
31.05
20.87
10.23
-0.24
-9.72
-17.25
-22.08
-25.51
-28.17
-29.57
-30.56
-31.54
-32.70
-33.93
-34.82
-34.91
-34.68
-34.01
-32.64
-30.54
-27.86
-25.14
-22.86
-21.16
-19.79
-18.48
-15.55
-9.49
0.27
13.06
27.09
40.35
51.64
60.61
68.25
78.36
94.18
116.93
144.89
174.03
199.94
219.81
232.59
240.49
250.33
267.92
295.76
331.63
369.93
404.58
432.06
451.44
466.55
487.30
522.66
578.02
653.12
742.28
836.50
925.77
999.33
1021.37
967.67
833.21
639.90
426.96
230.97
71.82
-39.46
-118.95
-181.15
-229.74
-263.93
-281.51
-282.98
-271.53
-252.60
-233.34
-222.91
-226.92
-244.02
-270.65
-300.89
-329.46
-353.71
-374.01
-392.48
-412.04
-432.05
-447.83
-457.34
-460.48
-459.80
-459.24
-462.17
-470.25
-483.38
-498.36
-510.30
-518.74
-524.85
-530.70
-537.89
-546.90
-557.22
-567.75
-576.17
-558.07
-498.77
-396.91
-266.56
-129.82
-5.89
94.58
169.45
222.23
258.76
281.49
292.28
293.07
286.58
275.92
263.68
251.95
242.38
236.43
232.10
227.11
219.58
208.77
194.91
178.21
158.86
136.48
110.98
81.58
49.70
19.42
-3.43
-12.29
-6.42
9.82
28.90
43.78
49.65
46.09
36.03
23.47
11.27
0.14
-10.12
-19.46
-26.77
-31.13
-32.27
-31.11
-29.46
-28.97
-30.49
-32.92
-33.98
-30.58
-20.89
-4.94
15.44
37.57
58.88
77.82
94.38
108.34
121.19
134.19
148.14
162.87
176.78
186.48
187.27
174.99
148.25
110.06
67.24
28.27
-0.21
-15.60
-19.78
-17.25
-12.49
-7.91
-3.63
1.06
6.47
11.60
14.93
15.47
13.43
9.93
6.22
2.95
-0.45
-5.25
-12.93
-24.07
-38.04
-53.00
-66.96
-77.55
-84.39
-88.87
-91.62
-93.45
-94.46
-93.98
-91.25
-85.92
-78.43
-70.33
-63.53
-59.86
-60.95
-67.78
-80.27
-95.61
-110.53
-119.83
-118.41
-103.56
-76.75
-43.70
-12.14
11.34
23.74
26.18
22.51
16.70
10.98
5.63
-0.12
-6.57
-12.93
-17.74
-19.95
-19.53
-17.53
-15.26
-13.70
-12.83
-11.58
-8.70
-3.48
3.85
12.01
19.22
24.03
25.85
25.13
23.17
21.39
20.79
21.77
24.02
27.14
31.09
36.43
44.07
54.76
68.44
82.98
96.79
108.12
115.64
119.14
119.46
118.00
116.27
115.54
116.82
120.58
125.83
129.78
128.19
116.75
93.34
59.66
21.24
-14.44
-40.87
-55.28
-59.07
-56.27
-51.09
-45.97
-41.24
-36.10
-30.13
-23.86
-18.56
-15.27
-13.92
-13.36
-12.09
-8.83
-3.40
3.24
9.66
14.35
16.47
15.97
13.49
9.81
5.49
0.52
-5.53
-13.13
-22.42
-32.95
-43.67
-53.23
-60.42
-64.39
-64.82
-61.86
-55.91
-47.45
-37.00
-25.17
-12.92
-1.53
7.47
12.98
14.51
12.41
7.67
1.59
-4.76
-11.02
-17.59
-25.45
-35.11
-46.24
-57.49
-66.91
-72.69
-73.69
-70.13
-63.30
-55.53
-48.76
-44.75
-44.88
-50.03
-59.73
-71.44
-80.79
-80.31
-67.43
-43.27
-12.98
16.08
37.30
47.58
48.03
42.53
35.23
28.19
21.73
15.22
8.38
1.95
-2.65
-4.57
-4.30
-3.54
-4.49
-8.45
-15.10
-22.88
-29.71
-33.95
-35.33
-34.98
-34.68
-36.08
-39.42
-43.37
-45.56
-43.65
-36.33
-23.75
-7.56
10.11
27.39
43.69
59.59
76.11
93.26
111.36
130.09
148.33
163.96
173.65
173.44
160.14
133.13
95.56
53.92
15.74
-13.33
-31.35
-40.05
-43.04
-43.42
-42.61
-40.44
-36.50
-31.39
-26.84
-24.97
-27.11
-33.38
-42.75
-53.30
-62.20
-66.26
-62.59
-49.68
-28.54
-2.72
22.77
43.40
56.85
63.39
65.40
65.54
65.49
65.60
65.52
65.22
65.81
69.22
76.60
87.05
96.97
100.92
93.77
73.52
42.90
8.45
-20.35
-36.75
-38.83
-29.65
-15.02
-0.53
10.73
18.32
23.24
26.28
26.99
24.41
17.99
8.23
-3.55
-15.99
-28.15
-40.11
-51.92
-64.55
-77.99
-91.22
-102.76
-111.09
-115.59
-116.64
-115.52
-113.93
-113.93
-117.01
-123.65
-132.52
-140.14
-141.64
-132.49
-110.89
-79.11
-43.38
-11.34
11.04
21.58
22.45
17.87
11.90
6.61
2.01
-2.86
-8.41
-13.87
-17.73
-18.76
-16.84
-12.83
-8.05
-3.48
0.79
5.54
11.85
20.55
31.65
44.19
56.62
67.37
75.39
80.43
82.95
83.70
83.28
81.86
79.11
74.48
67.51
58.17
46.90
34.46
21.65
9.12
-2.79
-13.89
-23.87
-32.10
-37.61
-39.37
-36.75
-29.91
-19.78
-7.98
3.74
14.09
22.62
29.80
36.71
44.19
52.41
60.78
68.28
73.71
76.46
76.77
75.87
75.80
78.51
85.67
98.22
115.24
133.15
146.27
148.33
134.97
106.31
66.50
23.41
-13.84
-38.51
-48.99
-49.05
-45.89
-46.24
-53.97
-70.35
-92.96
-117.15
-136.71
-146.97
-146.67
-138.28
-130.02
-125.30
-126.46
-135.26
-151.27
-173.66
-199.73
-223.97
-239.34
-239.39
-216.16
-172.21
-118.89
-70.19
-35.77
-18.09
-13.78
-16.86
-21.67
-23.25
-18.67
-5.56
18.01
52.96
97.49
148.55
199.40
243.46
276.26
295.60
302.89
302.42
298.80
294.37
287.54
273.15
245.31
200.95
141.76
75.21
12.15
-37.58
-69.12
-83.78
-87.34
-86.08
-83.87
-81.66
-78.41
-73.14
-66.31
-59.72
-55.32
-53.95
-54.71
-55.63
-54.62
-50.66
-44.17
-36.68
-30.06
-25.63
-23.61
-23.08
-22.48
-20.45
-16.36
-10.60
-4.27
1.41
5.66
8.40
10.19
11.96
14.45
18.09
22.77
28.02
33.26
38.01
42.06
45.29
47.61
48.83
48.68
46.84
42.99
36.98
28.91
19.13
8.12
-3.14
-14.18
-24.38
-33.16
-40.07
-44.84
-47.45
-48.18
-47.59
-46.35
-45.07
-44.03
-43.18
-42.20
-40.77
-39.02
-36.91
-34.94
-33.72
-33.78
-35.10
-37.16
-39.10
-40.11
-39.82
-38.52
-37.21
-37.03
-38.85
-42.67
-47.69
-52.53
-56.09
-57.78
-57.94
-57.64
-58.08
-60.27
-64.88
-72.29
-82.31
-93.61
-103.17
-106.77
-100.44
-82.50
-54.99
-23.49
4.91
24.50
33.15
32.60
26.92
20.12
14.40
10.00
6.21
2.73
0.25
-0.05
2.74
8.36
15.45
22.30
27.43
30.48
32.07
33.41
35.60
39.11
43.55
47.91
50.99
52.01
50.83
48.00
44.39
40.84
37.75
35.08
32.36
29.07
24.91
19.92
14.46
9.03
4.03
-0.39
-4.29
-7.95
-11.74
-15.91
-20.57
-25.71
-31.19
-36.90
-42.80
-48.67
-54.40
-59.93
-65.22
-70.22
-74.96
-79.49
-84.00
-88.76
-93.72
-98.92
-104.44
-110.33
-116.64
-123.36
-130.48
-137.98
-145.90
-153.78
-161.29
-168.12
-173.93
-178.31
-180.72
-180.37
-175.93
-169.35
-161.27
-152.29
-142.90
-133.44
-124.08
-114.83
-105.69
-96.51
-87.39
-78.13
-68.86
-59.79
-51.05
-42.61
-34.32
-26.01
-17.20
-7.81
2.12
12.01
21.18
29.27
36.37
43.00
49.70
58.12
69.04
82.19
96.14
109.21
120.52
130.45
140.25
151.38
167.52
190.56
219.84
252.21
283.96
312.82
338.81
363.72
389.75
422.68
465.33
516.08
569.06
616.97
654.42
679.44
693.48
700.40
711.18
735.31
776.99
832.94
893.50
945.83
977.55
979.97
913.77
763.38
540.45
281.04
27.43
-190.74
-362.47
-489.92
-580.18
-640.46
-671.10
-673.63
-653.55
-620.41
-584.57
-553.26
-529.07
-510.78
-495.65
-476.93
-450.47
-416.44
-379.01
-343.72
-314.53
-292.42
-275.97
-262.83
-248.22
-229.19
-205.69
-180.33
-156.64
-137.16
-122.45
-111.58
-102.93
-93.69
-82.20
-68.42
-53.82
-40.29
-29.15
-20.51
-13.60
-7.26
-0.05
8.59
18.11
26.87
33.05
35.17
32.70
26.08
16.27
4.62
-7.66
-19.34
-30.08
-40.01
-49.99
-61.12
-74.01
-87.80
-99.30
-103.51
-95.63
-73.55
-39.18
1.73
41.67
73.37
91.53
93.60
79.56
51.65
14.07
-27.18
-65.79
-95.49
-112.40
-115.94
-108.46
-93.90
-75.87
-56.75
-37.30
-18.91
-2.17
12.46
24.82
35.22
43.99
51.04
56.02
58.01
56.26
51.07
43.38
34.51
25.78
17.87
10.58
3.01
-5.83
-16.62
-28.79
-40.92
-51.46
-59.04
-63.24
-64.54
-63.98
-62.95
-62.94
-65.21
-70.50
-78.10
-85.40
-88.34
-82.80
-66.47
-41.03
-11.73
14.54
32.15
39.01
37.06
30.58
23.86
19.78
18.51
18.95
20.10
21.93
25.07
30.06
36.52
43.10
48.79
52.33
53.59
53.35
52.94
53.53
55.67
58.97
62.26
65.01
66.32
66.13
64.81
62.95
61.03
59.11
56.76
48.84
35.40
17.64
-2.08
-21.63
-39.28
-53.80
-64.44
-70.37
-72.19
-69.66
-63.23
-52.70
-38.40
-21.09
-1.91
17.92
37.28
55.55
73.31
84.56
86.52
78.50
61.94
39.56
14.34
-11.17
-34.93
-55.11
-71.27
-83.05
-91.19
-96.92
-101.37
-105.11
-107.99
-108.91
-106.30
-99.67
-89.05
-75.86
-61.98
-48.77
-36.53
-24.61
-11.43
5.06
25.42
48.65
72.28
93.62
111.47
126.81
138.62
148.33
159.28
174.61
196.39
224.43
255.88
285.33
305.53
309.21
284.18
227.53
147.71
61.64
-13.66
-68.51
-102.27
-120.06
-128.14
-130.54
-128.04
-120.92
-110.77
-100.55
-93.03
-89.16
-87.82
-86.83
-84.03
-78.02
-69.38
-60.26
-53.01
-48.70
-46.45
-43.97
-38.90
-30.18
-18.22
-5.20
5.46
10.30
7.61
-1.65
-13.48
-21.54
-19.06
-1.33
31.49
73.19
113.22
140.49
147.90
135.20
108.69
78.03
52.11
35.92
29.81
31.12
36.61
44.07
52.90
63.50
76.63
92.76
111.63
132.06
152.13
169.65
182.74
190.43
192.95
190.66
183.95
172.64
155.85
132.70
103.42
69.88
35.40
3.52
-23.14
-43.47
-57.89
-67.73
-74.38
-78.50
-79.87
-77.41
-70.09
-57.82
-42.09
-25.89
-12.73
-5.29
-4.25
-8.25
-14.84
-21.73
-27.52
-31.56
-33.45
-32.30
-26.46
-13.97
6.73
36.03
72.61
113.16
152.65
185.01
204.73
208.55
196.70
172.84
142.92
113.31
89.03
72.80
64.95
63.95
67.09
71.20
73.26
71.17
64.35
53.71
41.18
28.85
18.10
9.11
1.06
-7.34
-17.31
-29.64
-44.39
-60.89
-77.61
-92.62
-104.15
-111.32
-114.53
-115.38
-115.97
-118.07
-122.39
-128.51
-135.22
-141.14
-145.30
-147.52
-148.53
-149.65
-152.18
-156.56
-161.59
-164.58
-162.24
-152.24
-134.81
-113.32
-93.22
-79.74
-75.19
-77.69
-82.27
-83.71
-79.73
-72.28
-66.14
-65.84
-72.90
-84.82
-96.55
-103.25
-102.50
-94.91
-82.73
-67.71
-49.68
-26.97
1.82
36.00
71.96
104.04
126.50
135.30
129.63
111.70
85.58
55.41
24.09
-6.97
-37.07
-65.22
-89.75
-108.64
-120.73
-126.57
-128.65
-130.87
-136.49
-146.51
-159.68
-173.70
-186.82
-198.67
-210.34
-222.93
-236.69
-249.71
-258.24
-258.56
-249.19
-232.22
-212.65
-196.56
-187.99
-188.34
-194.32
-198.95
-194.21
-174.19
-137.22
-85.86
-26.53
33.07
82.61
115.43
131.06
134.46
132.61
131.17
134.20
141.62
151.57
154.13
142.16
115.49
79.81
42.02
6.35
-24.01
-50.56
-74.66
-108.52
-159.41
-224.43
-293.26
-355.17
-405.09
-439.62
-462.48
-476.72
-499.16
-540.51
-599.12
-664.86
-727.20
-783.36
-832.08
-880.11
-835.36
-652.89
-357.73
-27.80
265.75
493.89
630.39
707.74
748.58
767.30
757.26
712.01
646.48
577.19
519.00
475.43
447.47
428.97
416.84
398.96
368.09
325.96
280.28
239.85
203.88
170.57
134.56
94.60
44.76
-18.14
-92.78
-174.63
-228.27
-233.17
-188.77
-115.68
-36.79
30.98
82.27
119.21
147.61
164.26
170.98
169.33
161.32
151.97
145.87
146.53
154.45
168.29
202.65
257.13
323.77
391.58
451.79
497.02
529.88
552.24
564.56
566.69
554.08
523.37
474.64
411.31
338.26
260.54
181.31
103.44
30.05
-38.05
-99.85
-153.46
-196.52
-227.33
-245.23
-251.66
-248.62
-237.98
-222.65
-204.98
-186.55
-168.25
-150.77
-134.83
-121.82
-113.11
-109.48
-111.08
-116.36
-122.09
-124.16
-119.00
-105.10
-83.95
-59.36
-35.97
-17.84
-6.98
-3.21
-4.93
-9.94
-16.21
-22.14
-26.34
-27.58
-24.81
-17.60
-6.30
7.65
22.31
35.67
46.11
52.64
54.80
52.66
46.64
37.51
25.99
12.93
-0.84
-14.49
-27.40
-39.24
-49.99
-59.88
-69.32
-79.24
-90.37
-102.93
-116.53
-130.49
-144.48
-158.69
-173.82
-190.65
-210.97
-235.62
-263.74
-292.91
-319.99
-342.10
-357.15
-364.07
-363.18
-359.02
-356.44
-358.43
-364.60
-371.49
-374.30
-368.63
-351.78
-323.85
-291.67
-262.30
-239.67
-223.22
-209.50
-195.03
-177.94
-157.94
-136.18
-120.06
-115.71
-125.45
-147.42
-178.02
-215.02
-258.39
-308.88
-330.56
-300.90
-217.46
-100.19
23.02
131.42
215.35
273.19
308.22
325.81
326.55
311.97
285.66
253.44
221.34
193.73
170.60
153.75
143.57
134.98
123.22
106.16
84.91
62.44
41.87
25.26
14.11
8.80
6.51
4.73
2.75
2.17
3.39
7.13
13.55
22.94
35.00
47.91
59.90
69.83
77.25
82.24
85.23
86.90
89.18
93.98
102.51
115.31
132.10
151.65
172.06
191.46
208.51
224.62
241.68
261.65
285.45
312.51
340.56
366.54
387.73
402.71
414.43
426.69
443.25
466.71
497.99
535.91
577.23
616.53
646.18
660.11
651.66
616.62
555.80
476.49
390.72
311.49
248.04
183.46
105.90
8.57
-105.33
-224.21
-333.96
-424.51
-492.71
-541.11
-574.96
-596.10
-605.50
-602.41
-588.17
-564.13
-533.48
-501.13
-471.37
-446.49
-424.14
-400.71
-371.83
-334.32
-286.77
-229.71
-165.23
-96.42
-25.06
49.72
123.37
190.32
244.35
280.82
297.97
296.15
278.96
251.26
218.33
184.75
154.04
127.81
105.93
93.42
85.75
79.12
71.60
62.83
53.75
45.50
38.58
33.05
28.50
23.87
20.25
20.24
22.39
28.24
40.32
60.93
90.91
128.08
165.86
195.92
209.80
201.77
171.81
125.24
70.69
16.79
-30.79
-70.69
-103.61
-130.85
-153.16
-169.91
-180.41
-184.16
-180.81
-171.10
-156.88
-139.83
-121.08
-101.06
-79.94
-58.36
-37.56
-18.84
-3.42
8.29
17.13
24.58
31.79
39.20
46.54
53.13
58.67
62.86
65.89
68.32
70.21
71.54
70.12
63.75
50.99
31.75
6.39
-23.99
-56.87
-87.25
-110.90
-125.36
-130.53
-131.66
-131.85
-134.36
-140.82
-149.24
-155.14
-154.57
-146.41
-133.35
-121.18
-115.97
-122.07
-139.60
-162.99
-183.22
-192.25
-186.42
-167.63
-142.27
-118.16
-97.69
-81.89
-67.65
-48.55
-18.64
25.26
83.29
153.80
234.55
318.06
390.69
436.68
446.38
420.56
369.45
307.54
248.04
199.09
162.24
136.82
117.47
101.41
87.14
73.03
56.01
31.81
-3.85
-54.22
-115.99
-181.95
-243.36
-293.35
-327.44
-342.61
-336.95
-310.65
-267.41
-214.40
-161.23
-115.94
-83.27
-63.56
-53.88
-50.45
-50.75
-54.00
-60.13
-68.92
-78.48
-86.59
-91.70
-93.62
-93.68
-93.67
-94.97
-97.34
-100.24
-100.41
-94.98
-82.14
-61.51
-34.10
-1.88
32.79
67.70
99.46
126.27
147.15
161.92
171.12
175.71
176.84
175.44
171.97
166.30
158.37
147.97
135.50
122.19
109.94
100.64
95.39
93.73
93.66
92.90
89.09
81.20
70.12
58.28
48.81
44.71
47.75
57.33
70.31
80.60
80.62
64.32
30.24
-16.08
-62.80
-95.96
-104.94
-86.69
-47.05
1.98
47.06
77.70
88.59
79.74
56.33
24.54
-7.48
-31.75
-43.14
-40.89
-29.16
-14.65
-4.23
-0.85
-3.30
-7.73
-11.18
-14.46
-20.41
-32.58
-51.62
-74.19
-93.58
-103.10
-99.15
-83.05
-60.58
-39.77
-27.91
-28.69
-40.74
-58.02
-72.15
-75.30
-63.38
-37.67
-3.65
31.36
61.05
82.23
94.38
97.72
92.03
76.84
53.88
28.82
10.13
5.20
15.85
36.14
54.67
60.74
50.25
28.69
8.68
2.74
16.28
44.52
75.16
95.18
97.56
83.39
61.22
41.59
31.32
30.96
36.01
40.73
42.08
41.41
40.78
41.96
44.34
44.58
38.30
22.39
-3.23
-35.79
-66.07
-89.16
-103.19
-109.49
-111.63
-113.89
-119.07
-127.09
-134.64
-136.50
-131.35
-120.35
-107.32
-97.81
-97.66
-111.02
-139.60
-182.31
-221.35
-243.83
-244.22
-224.26
-188.10
-139.43
-82.28
-22.75
32.11
77.46
109.66
129.57
141.37
149.63
155.75
157.19
148.41
124.77
86.90
38.97
-10.72
-52.72
-80.11
-93.93
-96.89
-94.80
-93.62
-95.66
-100.31
-103.74
-100.89
-88.10
-65.15
-35.30
-1.93
26.11
43.36
49.37
47.89
44.42
43.06
45.23
50.61
55.86
58.25
57.75
56.30
56.78
61.53
70.95
83.26
94.53
98.24
90.14
70.35
43.09
14.06
-12.48
-35.42
-55.43
-73.75
-90.36
-102.87
-108.64
-104.67
-90.86
-69.98
-46.68
-24.41
-4.87
12.39
29.83
50.63
77.74
112.59
154.76
196.33
229.59
246.72
242.05
214.73
169.70
116.84
67.26
29.38
6.24
-3.85
-5.83
-4.67
-3.14
-1.78
0.11
2.97
6.26
8.89
10.43
11.20
12.02
13.74
16.71
20.62
24.66
27.75
29.29
28.37
24.41
17.07
6.09
-8.77
-27.93
-51.94
-80.93
-112.56
-142.75
-165.45
-174.43
-166.17
-141.93
-107.85
-72.79
-44.73
-27.82
-21.60
-22.29
-25.49
-28.62
-31.41
-34.77
-39.28
-44.29
-48.24
-49.98
-49.48
-47.97
-47.55
-50.14
-56.30
-65.07
-74.24
-81.18
-83.91
-81.93
-75.35
-65.38
-53.33
-39.87
-24.78
-7.04
14.35
39.51
66.69
93.40
116.57
133.48
142.99
145.74
143.95
140.35
136.95
134.78
133.90
133.88
134.35
134.57
132.72
125.96
111.65
89.09
61.03
32.83
9.87
-5.16
-13.30
-18.56
-24.69
-32.75
-40.92
-45.80
-45.13
-39.37
-31.36
-24.41
-20.83
-21.39
-25.45
-31.48
-37.08
-39.08
-34.32
-21.20
-0.78
23.44
46.87
65.88
78.87
85.64
85.91
78.15
60.22
31.77
-4.14
-40.86
-70.36
-86.61
-88.08
-77.77
-60.55
-41.91
-24.54
-8.35
7.88
24.82
41.69
56.59
67.61
73.59
74.35
70.82
64.19
55.17
43.86
29.93
13.07
-6.04
-26.27
-45.76
-62.25
-74.11
-80.92
-83.56
-83.92
-84.08
-85.52
-88.68
-92.78
-96.24
-97.64
-96.35
-92.81
-88.45
-85.02
-84.37
-87.96
-96.54
-108.23
-119.38
-124.84
-119.65
-101.31
-71.42
-35.80
-2.20
22.73
36.28
40.25
39.38
38.98
42.53
51.07
63.48
77.38
89.77
97.52
97.93
89.89
75.00
57.20
42.09
33.82
33.52
39.27
47.83
56.67
65.25
74.52
85.16
96.28
105.23
108.69
104.82
94.44
80.43
66.47
55.25
46.99
39.33
28.46
11.09
-13.68
-43.92
-76.27
-106.75
-131.76
-148.20
-153.26
-144.98
-123.73
-93.77
-63.67
-42.40
-36.18
-44.65
-60.55
-73.42
-75.26
-64.77
-47.49
-32.17
-25.06
-26.97
-33.44
-38.16
-36.80
-28.90
-16.48
-2.44
11.17
23.48
33.66
40.41
42.53
39.68
32.81
24.70
18.36
15.88
18.00
24.19
33.19
43.50
53.43
61.43
66.21
67.32
65.57
62.60
60.50
60.49
62.54
64.91
65.05
59.92
47.10
25.78
-2.40
-33.11
-60.26
-77.93
-82.57
-75.49
-61.93
-48.76
-41.29
-41.05
-45.58
-50.40
-51.76
-48.16
-40.78
-31.94
-23.57
-16.34
-9.89
-3.84
1.61
5.55
7.14
5.79
2.10
-2.32
-5.46
-5.54
-1.85
5.16
14.03
22.88
30.10
34.68
36.38
35.34
31.94
26.13
17.81
6.80
-6.87
-22.48
-38.86
-54.55
-68.16
-78.34
-85.03
-88.34
-88.88
-87.53
-84.63
-80.58
-75.81
-70.90
-66.00
-62.63
-61.40
-62.60
-66.10
-70.15
-72.85
-72.51
-68.12
-58.68
-46.12
-31.55
-16.17
-0.88
15.46
34.10
55.88
80.56
107.83
133.81
156.50
175.07
184.06
183.59
175.87
164.01
142.84
124.68
106.69
88.01
68.45
48.99
34.10
28.47
35.70
57.50
94.88
144.88
205.32
272.32
329.88
361.46
354.14
305.64
226.31
135.08
48.78
-20.24
-67.97
-97.46
-113.34
-120.01
-120.20
-115.22
-105.75
-94.47
-83.54
-74.96
-69.75
-66.78
-63.84
-60.31
-57.10
-56.74
-63.43
-80.40
-108.54
-144.98
-181.31
-206.94
-214.29
-201.70
-174.29
-141.81
-113.81
-95.78
-87.44
-84.21
-79.91
-70.96
-57.12
-40.51
-23.89
-9.06
3.32
13.13
18.64
18.59
11.61
-3.07
-24.69
-51.14
-79.21
-105.45
-126.74
-141.32
-148.44
-148.62
-143.36
-134.42
-123.85
-113.33
-103.88
-95.69
-88.32
-81.19
-74.33
-68.23
-63.61
-61.41
-61.83
-63.63
-64.45
-61.16
-50.83
-31.54
-5.07
27.19
63.70
102.53
140.94
174.98
200.34
214.27
217.81
217.89
224.21
244.63
280.67
326.06
368.98
397.44
404.38
390.15
362.55
330.48
299.74
271.75
245.65
221.74
203.22
194.68
187.32
174.02
147.71
104.66
46.09
-21.53
-88.60
-145.91
-188.37
-216.33
-231.91
-240.23
-243.53
-240.82
-228.98
-204.53
-165.48
-112.42
-49.02
19.87
85.34
137.30
167.37
172.65
158.27
136.31
121.04
122.55
142.70
173.37
201.02
213.02
203.10
173.29
131.37
86.09
43.33
5.46
-27.66
-56.18
-79.06
-94.69
-101.91
-101.22
-94.99
-86.83
-79.81
-75.27
-72.80
-70.86
-69.01
-67.59
-67.67
-70.78
-78.51
-91.66
-109.82
-131.80
-155.82
-181.97
-210.98
-244.53
-284.91
-333.69
-389.77
-447.75
-498.76
-532.44
-542.75
-528.51
-494.03
-447.29
-396.60
-347.80
-302.62
-260.45
-206.96
-137.66
-57.72
20.34
83.96
126.86
146.64
150.74
146.79
140.95
135.41
132.09
134.99
148.28
175.08
214.99
260.55
298.31
315.41
304.48
268.42
218.09
166.82
125.16
97.65
83.74
79.74
81.97
86.96
92.74
96.58
95.05
85.10
65.73
39.41
11.77
-9.43
-17.95
-11.11
7.70
29.71
44.93
47.07
35.66
15.20
-7.72
-27.94
-43.56
-55.83
-66.81
-77.72
-87.89
-96.20
-102.04
-105.48
-107.25
-107.56
-106.27
-102.56
-95.41
-83.43
-66.66
-46.62
-25.44
-4.90
14.37
32.69
50.98
70.03
90.97
113.24
134.81
153.42
167.75
178.08
186.14
194.96
204.35
216.34
231.18
245.85
254.14
248.16
221.25
170.73
99.81
13.92
-72.50
-143.20
-187.25
-203.25
-198.06
-181.28
-160.36
-138.78
-117.00
-93.77
-69.68
-47.28
-29.55
-18.34
-13.22
-13.08
-17.43
-26.19
-38.43
-52.62
-65.74
-73.14
-69.96
-53.24
-23.66
11.92
43.64
63.60
68.42
59.64
41.98
20.58
-0.69
-19.68
-35.57
-47.68
-55.15
-57.64
-55.32
-48.67
-38.13
-24.03
-6.40
14.23
36.62
58.86
78.40
92.90
100.56
100.63
93.71
82.16
69.44
59.42
54.98
55.73
59.03
59.68
51.71
30.00
-4.92
-46.10
-82.75
-105.56
-111.15
-102.56
-86.53
-69.36
-54.47
-41.98
-30.74
-20.31
-11.68
-6.44
-5.29
-7.50
-11.14
-13.88
-13.91
-10.79
-5.60
-0.41
2.87
3.38
1.51
-1.38
-3.66
-4.09
-2.36
0.83
4.18
6.47
7.16
6.44
5.11
4.07
4.03
5.18
7.16
9.29
10.96
11.87
12.10
12.07
12.21
12.94
14.48
16.86
19.93
23.56
27.62
31.95
36.40
40.66
44.33
46.96
48.16
47.47
44.69
39.86
33.24
25.28
16.49
7.48
-1.20
-9.08
-15.85
-21.24
-25.06
-27.32
-28.04
-27.31
-25.29
-22.14
-18.24
-13.94
-9.54
-5.31
-1.60
1.33
3.26
4.07
3.78
2.20
-0.62
-4.22
-7.96
-11.23
-13.35
-13.88
-12.54
-9.32
-5.17
-0.98
2.94
6.60
9.99
13.62
18.04
23.76
31.29
39.78
48.33
56.96
65.70
74.24
82.54
90.48
97.70
103.62
106.04
102.58
92.01
75.27
52.29
23.42
-10.94
-50.52
-86.69
-112.57
-125.37
-126.38
-120.40
-112.49
-104.92
-97.86
-90.60
-82.74
-75.62
-77.47
-86.03
-98.43
-112.55
-125.44
-133.97
-135.45
-129.30
-117.78
-104.69
-92.99
-77.87
-59.10
-36.96
-11.85
15.31
41.62
62.48
73.17
71.55
56.59
27.44
-15.46
-71.15
-128.83
-176.32
-202.92
-203.18
-176.92
-129.42
-70.73
-12.13
36.62
70.31
87.92
92.54
88.91
81.48
72.80
63.16
52.89
43.14
35.87
31.57
29.52
27.83
24.62
18.53
9.20
-2.37
-14.18
-24.26
-31.89
-37.40
-41.88
-46.36
-51.32
-56.41
-61.21
-63.73
-62.45
-56.90
-47.65
-36.13
-24.03
-13.04
-4.16
2.02
5.51
6.40
4.77
0.63
-6.05
-15.19
-26.56
-39.35
-52.60
-65.20
-76.40
-85.70
-93.02
-98.72
-103.37
-107.85
-112.46
-117.31
-122.20
-126.66
-129.96
-131.31
-129.92
-124.89
-118.46
-111.49
-104.11
-95.85
-85.85
-73.09
-56.88
-37.25
-15.07
8.09
31.06
53.62
76.22
99.84
125.52
153.77
184.01
214.45
242.57
266.45
286.07
302.32
316.70
330.62
345.24
361.45
379.83
400.31
421.88
443.06
459.81
466.82
459.92
439.04
409.18
378.24
353.45
337.84
330.63
325.98
316.44
296.45
265.02
225.31
181.56
137.68
83.79
17.53
-56.51
-127.81
-185.12
-221.31
-235.23
-231.76
-217.21
-196.93
-172.50
-145.09
-115.01
-85.68
-61.51
-46.65
-45.65
-60.19
-88.87
-126.45
-167.75
-209.54
-251.25
-293.97
-335.73
-376.55
-415.38
-449.77
-474.86
-485.19
-476.48
-447.25
-399.35
-328.84
-243.87
-159.99
-92.67
-49.01
-25.75
-14.46
-8.85
-4.86
-1.52
-0.12
0.18
2.13
8.76
22.76
43.92
70.49
100.32
130.78
157.60
176.55
183.72
173.85
146.51
108.03
70.46
45.92
40.03
50.70
72.06
97.89
122.67
141.94
150.78
144.66
120.66
75.81
11.55
-61.76
-128.18
-173.12
-189.66
-182.64
-164.71
-149.62
-146.98
-157.64
-175.40
-191.24
-200.44
-199.25
-191.05
-185.03
-187.79
-202.97
-227.39
-252.46
-266.02
-257.25
-220.48
-158.38
-80.26
1.73
76.60
140.24
189.37
224.40
247.15
260.32
266.41
269.02
273.41
276.07
276.18
273.05
266.95
257.46
243.92
224.85
199.68
169.64
137.19
106.71
81.35
63.18
51.32
43.81
38.19
32.81
27.14
21.37
17.09
14.99
19.18
27.02
35.57
42.15
44.90
43.03
36.58
27.22
16.96
9.15
5.54
7.55
15.60
28.99
46.13
64.53
82.05
90.23
87.86
76.15
58.63
39.12
20.49
4.19
-10.11
-23.22
-36.05
-47.87
-58.54
-67.77
-75.41
-81.34
-85.14
-86.86
-87.56
-89.22
-94.15
-105.68
-125.74
-153.09
-182.68
-204.70
-211.80
-201.08
-175.11
-139.98
-103.07
-69.75
-42.12
-19.86
-1.92
11.58
20.07
23.24
22.08
18.57
15.08
13.61
15.02
18.79
23.07
26.08
26.83
25.54
23.44
22.11
22.78
25.81
30.55
35.45
38.84
39.53
37.05
31.80
24.69
16.77
8.98
1.97
-4.04
-8.75
-11.84
-12.93
-11.64
-7.74
-1.31
7.41
17.99
29.77
42.27
55.00
67.41
78.92
88.79
96.04
99.75
99.15
93.90
84.11
70.28
53.28
34.13
14.05
-5.90
-24.71
-41.43
-55.16
-65.31
-71.69
-74.89
-75.44
-74.62
-73.78
-73.93
-75.44
-77.96
-80.86
-83.54
-85.72
-87.77
-90.53
-94.80
-100.82
-108.25
-115.08
-119.03
-118.38
-112.19
-101.11
-86.78
-71.07
-55.76
-42.17
-31.17
-23.18
-17.58
-12.05
-3.24
12.13
35.58
65.36
96.62
123.14
139.60
142.92
134.55
118.14
97.46
75.12
52.46
30.54
10.79
-5.22
-16.52
-23.60
-28.88
-35.54
-45.91
-60.36
-76.78
-91.73
-101.00
-101.31
-90.84
-70.10
-42.27
-12.98
11.00
24.26
25.79
20.88
18.95
29.18
55.03
92.31
130.13
156.66
164.73
154.71
133.44
109.61
89.45
74.55
63.57
54.84
48.65
46.37
48.20
51.46
50.46
42.09
27.28
11.77
2.52
3.34
11.81
20.60
22.07
13.01
-3.11
-18.80
-27.11
-25.53
-16.38
-4.31
7.27
17.69
28.30
39.94
50.89
57.10
54.29
40.25
15.94
-14.50
-45.32
-71.21
-88.76
-97.54
-99.36
-97.21
-93.42
-89.05
-83.85
-77.35
-69.69
-62.04
-56.72
-55.49
-60.54
-72.43
-90.45
-112.60
-135.96
-156.42
-169.19
-170.45
-158.93
-137.18
-110.63
-86.36
-67.91
-56.13
-48.64
-41.22
-30.40
-14.62
5.22
27.40
50.27
73.15
95.78
117.49
136.90
151.80
160.68
163.08
160.42
155.42
150.94
149.61
150.50
151.74
151.06
146.61
137.99
126.44
114.40
104.71
99.76
100.95
108.59
121.00
134.18
142.58
140.91
126.44
100.26
67.16
33.48
4.88
-16.02
-30.09
-40.35
-49.56
-58.50
-66.14
-70.78
-71.55
-68.65
-63.08
-55.69
-46.60
-35.12
-20.50
-2.24
18.64
39.79
58.80
74.04
85.14
92.89
98.91
104.56
111.02
118.20
124.07
126.91
126.30
123.15
118.57
113.33
105.67
97.85
89.69
77.40
58.33
32.78
3.71
-25.47
-51.59
-75.01
-96.31
-116.28
-139.95
-170.03
-204.68
-238.67
-267.23
-287.20
-301.98
-315.75
-332.10
-359.56
-402.55
-458.51
-519.17
-575.50
-619.33
-650.39
-668.99
-633.36
-524.11
-354.57
-162.69
16.16
149.79
250.07
325.66
381.14
418.70
432.68
417.37
373.66
310.54
244.59
196.00
174.04
179.67
206.72
239.97
266.16
279.89
282.84
277.92
268.23
248.79
216.50
173.47
123.29
72.37
28.35
-3.48
-23.31
-29.81
-30.95
-33.38
-39.35
-49.19
-61.50
-73.61
-82.67
-86.78
-88.45
-93.96
-107.44
-130.07
-161.53
-200.63
-245.66
-294.93
-327.31
-329.74
-303.36
-260.28
-214.92
-176.58
-148.69
-130.88
-120.25
-111.62
-100.90
-84.25
-58.04
-21.46
21.86
64.58
98.80
120.00
128.65
127.01
118.56
106.79
94.07
81.39
68.86
56.63
45.59
36.81
29.35
21.77
12.94
2.47
-9.12
-20.77
-31.97
-40.07
-42.56
-38.18
-26.61
-8.53
14.65
41.55
71.39
103.66
136.96
168.36
192.86
205.04
201.14
181.52
151.07
117.21
85.90
59.72
38.81
20.99
6.64
-0.96
2.66
19.39
46.04
73.37
89.83
86.64
61.72
20.77
-26.30
-69.26
-101.13
-118.78
-123.39
-116.90
-101.51
-79.78
-54.91
-31.69
-15.33
-9.67
-14.65
-29.61
-50.78
-74.07
-97.99
-120.46
-140.77
-159.83
-177.96
-192.48
-203.54
-209.38
-208.85
-201.91
-188.13
-167.88
-141.23
-106.94
-60.43
-2.92
63.52
133.01
197.14
247.96
279.93
291.14
271.22
242.99
209.13
173.33
137.57
103.12
72.06
47.19
31.01
26.68
40.27
71.34
118.97
179.03
245.06
310.16
367.87
412.41
425.15
396.06
322.84
218.71
103.35
-6.09
-99.74
-170.67
-224.27
-265.01
-291.78
-304.42
-301.09
-282.19
-250.64
-211.66
-171.03
-134.18
-103.21
-75.66
-49.03
-19.11
17.06
60.79
111.69
167.90
225.39
279.15
324.05
344.41
329.56
279.02
205.34
128.25
64.49
20.81
-5.48
-21.63
-34.91
-47.70
-58.77
-65.75
-67.80
-66.53
-64.93
-65.47
-68.49
-72.79
-74.58
-69.85
-56.21
-34.27
-7.90
16.78
32.98
36.30
24.43
-1.62
-38.93
-83.55
-130.12
-172.44
-203.26
-219.20
-216.67
-196.91
-166.74
-136.41
-115.24
-107.43
-110.29
-113.49
-108.13
-88.84
-57.29
-19.99
16.31
48.34
76.43
102.40
127.57
148.49
160.29
158.22
140.28
107.85
64.84
16.73
-30.28
-68.35
-92.06
-98.84
-90.66
-73.21
-53.74
-38.24
-29.44
-26.23
-25.47
-24.88
-23.68
-22.91
-23.90
-26.62
-29.56
-30.45
-27.72
-21.91
-15.78
-12.57
-14.91
-23.44
-36.63
-51.92
-66.58
-78.87
-88.52
-96.53
-103.99
-111.28
-118.08
-121.84
-119.77
-109.67
-90.69
-63.75
-31.27
3.75
38.15
69.50
96.80
119.88
138.99
154.23
165.35
171.98
173.77
170.85
164.05
154.87
145.01
136.42
131.07
130.22
133.31
137.10
136.33
125.48
101.48
65.64
23.58
-16.92
-48.89
-68.20
-74.04
-67.93
-52.79
-32.27
-10.92
6.16
14.67
12.70
1.95
-12.95
-26.48
-34.73
-36.83
-34.34
-29.70
-24.57
-19.33
-13.66
-7.43
-1.11
4.53
9.07
12.56
15.33
17.97
20.64
23.06
24.53
24.17
21.41
15.96
8.11
-1.49
-11.92
-22.17
-31.38
-38.86
-44.49
-48.60
-51.74
-54.41
-56.74
-58.58
-59.50
-59.21
-57.61
-54.94
-51.19
-45.75
-37.60
-25.96
-11.41
3.93
17.08
25.59
28.09
25.36
19.87
14.72
12.52
13.98
18.53
25.00
32.82
40.86
48.49
55.29
60.96
65.13
66.62
64.95
61.45
59.91
62.53
69.77
79.32
86.72
86.88
75.17
51.17
19.41
-11.19
-34.91
-49.46
-56.35
-58.98
-60.96
-66.82
-79.43
-99.99
-122.01
-143.61
-163.92
-181.82
-194.66
-188.69
-157.23
-103.01
-47.17
4.54
48.87
86.24
114.32
131.21
135.65
124.88
96.92
52.75
0.15
-53.62
-103.54
-147.91
-185.55
-213.81
-229.30
-228.01
-207.26
-167.23
-115.84
-64.79
-24.89
-1.50
6.32
3.18
-5.27
-14.34
-20.96
-25.58
-29.63
-33.57
-36.48
-37.73
-36.95
-35.21
-34.03
-34.50
-37.48
-43.12
-50.31
-57.36
-62.68
-65.58
-66.30
-65.60
-64.33
-63.61
-64.26
-66.30
-69.36
-72.73
-75.53
-77.03
-76.52
-73.43
-67.30
-60.67
-54.57
-49.25
-44.01
-37.38
-27.70
-13.78
4.46
25.77
48.04
69.41
88.69
106.01
122.82
141.48
164.73
195.06
234.03
281.23
333.58
384.67
425.88
448.78
448.20
424.21
382.08
329.95
275.69
224.23
176.54
130.81
84.62
37.23
-9.56
-51.87
-85.24
-106.36
-114.28
-110.88
-100.16
-86.83
-74.54
-64.97
-57.91
-52.28
-47.33
-43.32
-41.22
-41.73
-44.58
-48.43
-51.68
-53.58
-54.60
-56.17
-59.59
-65.01
-71.01
-75.37
-76.01
-72.27
-65.22
-57.20
-50.88
-48.21
-49.84
-55.02
-62.04
-68.61
-72.53
-72.18
-66.89
-57.11
-44.29
-30.43
-17.46
-6.71
1.30
6.79
10.34
12.68
14.25
14.99
14.31
11.15
4.53
-5.74
-18.46
-31.14
-40.70
-44.91
-43.46
-38.30
-32.79
-30.16
-32.27
-39.16
-49.66
-62.31
-76.22
-91.02
-106.28
-120.95
-133.35
-141.62
-144.54
-142.11
-135.46
-126.26
-116.02
-105.49
-94.61
-82.81
-69.64
-55.33
-41.01
-28.32
-18.81
-13.06
-10.30
-8.81
-6.68
-2.83
2.34
7.03
8.67
4.66
-6.76
-26.06
-51.99
-81.36
-109.44
-130.88
-141.16
-138.14
-122.80
-98.80
-71.05
-43.97
-20.34
-1.20
13.55
24.13
30.60
32.97
31.76
28.36
24.76
22.84
23.60
26.80
31.20
35.64
40.23
47.01
59.52
80.97
111.91
148.60
183.38
206.93
211.71
194.35
156.50
104.02
45.03
-11.66
-57.56
-85.41
-90.57
-72.82
-37.72
4.26
41.11
63.73
69.64
63.39
53.82
49.65
55.75
71.73
93.40
115.51
134.14
147.79
157.13
163.91
170.12
177.79
188.98
205.61
228.77
257.89
290.36
321.71
346.77
361.28
363.38
354.31
337.91
319.41
304.05
295.89
297.02
307.07
323.27
340.83
354.13
358.42
351.49
334.49
311.34
286.79
264.20
244.28
225.35
204.83
181.08
154.21
125.61
96.59
67.14
35.84
0.73
-39.29
-83.43
-129.17
-173.03
-212.01
-244.63
-271.15
-293.30
-313.78
-335.44
-360.67
-390.05
-421.26
-448.58
-463.62
-457.42
-423.23
-359.24
-269.88
-165.49
-60.02
32.29
100.41
139.03
149.34
137.97
114.49
88.36
66.50
52.07
44.55
41.02
37.67
30.79
17.03
-6.27
-40.42
-84.24
-133.08
-178.97
-212.65
-226.23
-216.26
-185.15
-140.00
-89.44
-39.91
6.42
50.72
94.41
135.67
168.14
182.80
172.21
134.43
74.59
3.21
-68.02
-129.83
-177.63
-211.05
-231.90
-242.41
-244.86
-242.22
-238.64
-238.62
-244.78
-255.68
-265.32
-265.34
-248.74
-213.58
-164.58
-111.19
-63.77
-29.46
-9.53
0.57
8.96
23.98
50.85
89.48
134.22
175.40
202.28
206.59
185.13
140.83
81.86
19.67
-33.28
-65.82
-70.40
-45.09
5.27
69.45
132.07
177.67
194.94
180.02
136.84
74.40
2.58
-70.84
-141.44
-207.07
-265.44
-312.70
-342.90
-349.84
-330.42
-286.70
-225.16
-154.04
-80.56
-9.80
54.30
107.36
143.66
156.93
143.12
103.74
48.45
-4.77
-35.95
-33.91
-1.81
47.32
99.15
143.70
176.49
199.02
212.36
216.20
209.28
190.84
161.53
123.01
76.87
25.60
-28.44
-83.91
-140.39
-197.39
-253.90
-307.55
-354.27
-388.92
-406.66
-405.06
-385.78
-354.31
-317.00
-280.18
-248.27
-222.68
-201.78
-181.85
-158.84
-130.01
-94.28
-49.86
3.12
62.16
122.87
180.76
232.85
277.85
315.78
347.84
379.15
414.35
454.69
497.33
535.70
561.74
568.41
551.78
495.95
401.34
285.85
176.61
94.71
45.67
23.16
17.26
19.65
25.75
36.23
52.73
71.70
87.02
92.34
84.10
62.16
27.99
-15.46
-62.58
-109.00
-153.93
-195.50
-232.29
-262.11
-282.08
-290.97
-288.54
-274.45
-250.80
-222.57
-196.73
-180.97
-181.16
-191.31
-206.28
-222.55
-238.33
-252.83
-263.54
-265.12
-251.47
-218.38
-166.36
-103.03
-39.57
13.66
50.79
71.48
79.63
80.19
76.71
70.55
60.61
46.00
27.38
7.05
-12.30
-28.87
-42.43
-53.42
-63.43
-72.49
-79.32
-81.68
-77.02
-63.37
-40.21
-8.89
28.05
66.60
102.32
132.00
154.11
168.75
177.19
181.20
182.39
181.72
179.46
175.43
169.38
161.40
152.09
142.59
134.07
127.38
122.83
120.55
120.65
122.83
125.58
125.72
119.16
102.47
75.03
40.17
4.41
-24.96
-42.82
-48.20
-43.96
-34.83
-24.92
-16.37
-9.52
-3.88
0.11
1.33
-1.48
-8.65
-19.18
-31.02
-41.84
-49.89
-54.59
-56.56
-56.96
-56.91
-57.01
-57.10
-56.51
-54.52
-50.74
-45.37
-39.27
-33.36
-28.39
-24.65
-21.89
-19.51
-16.76
-13.07
-8.20
-2.63
2.98
7.88
11.36
13.06
12.98
11.62
9.82
8.53
7.95
8.10
8.47
8.21
6.54
3.06
-1.75
-6.73
-10.32
-11.83
-11.08
-8.80
-6.72
-6.76
-10.65
-19.41
-33.65
-49.73
-65.98
-81.49
-96.11
-110.16
-124.51
-140.54
-159.60
-182.25
-207.00
-230.03
-244.60
-243.31
-221.24
-179.42
-126.13
-74.54
-37.97
-25.18
-38.14
-72.06
-118.06
-165.94
-206.59
-232.79
-239.28
-223.21
-185.66
-132.34
-72.32
-15.40
31.76
66.41
89.59
104.60
115.11
123.71
131.20
137.24
141.12
144.01
146.54
148.71
150.29
151.25
152.06
153.34
155.55
159.12
167.10
180.72
199.29
221.32
246.24
275.08
309.36
349.22
391.82
434.38
469.40
487.45
481.51
450.76
400.97
341.51
281.62
207.04
117.94
25.88
-52.65
-107.18
-136.54
-145.42
-140.69
-129.03
-115.49
-98.20
-77.67
-56.64
-39.39
-30.07
-31.59
-45.52
-72.15
-111.16
-153.94
-192.73
-223.13
-244.46
-257.96
-265.47
-269.04
-270.75
-272.23
-271.95
-268.06
-257.77
-237.97
-206.47
-164.14
-115.81
-69.14
-31.49
-6.12
7.28
12.01
12.35
11.56
10.63
8.92
5.46
0.24
-5.15
-9.14
-10.96
-11.02
-10.49
-11.15
-14.41
-20.77
-29.62
-39.38
-48.08
-53.75
-55.51
-52.63
-45.75
-36.30
-25.81
-15.34
-5.10
5.70
18.43
34.51
54.87
79.44
107.10
135.31
159.65
174.47
174.49
156.54
121.15
73.27
21.22
-25.54
-59.21
-76.11
-77.65
-68.01
-52.02
-33.63
-15.55
0.26
11.69
16.88
14.66
4.80
-9.69
-23.42
-30.82
-28.63
-17.15
-0.07
17.70
31.29
33.37
19.71
-9.62
-50.47
-94.66
-131.55
-151.08
-146.38
-117.05
-71.17
-19.09
31.31
76.02
115.32
151.57
178.95
190.36
191.34
181.33
153.93
109.91
55.59
0.52
-45.93
-78.11
-95.13
-101.46
-106.51
-117.71
-136.56
-159.44
-179.55
-190.52
-189.92
-179.93
-166.97
-160.09
-165.01
-180.93
-202.15
-220.57
-228.84
-223.00
-202.40
-169.15
-127.38
-80.36
-29.77
23.04
76.33
127.56
173.63
212.37
243.44
268.48
290.03
309.39
323.98
327.72
314.20
280.79
231.23
174.92
123.23
83.59
56.57
36.43
15.43
-11.22
-42.98
-74.87
-100.74
-114.88
-115.51
-104.87
-87.75
-68.70
-49.98
-31.41
-11.71
9.86
35.07
63.48
92.28
117.49
136.27
149.02
158.61
168.40
180.38
198.51
225.61
262.61
307.55
356.26
403.55
443.19
468.76
454.00
385.01
268.29
130.87
4.45
-91.31
-152.99
-188.04
-206.58
-216.56
-218.60
-211.24
-194.57
-172.50
-151.00
-134.47
-124.52
-119.87
-117.95
-113.45
-102.62
-84.93
-63.23
-43.79
-32.12
-31.45
-42.49
-63.96
-91.58
-121.05
-149.39
-175.82
-200.65
-224.68
-248.38
-271.64
-294.29
-315.58
-337.78
-358.88
-376.34
-386.09
-383.38
-364.56
-329.42
-282.04
-229.47
-179.17
-136.33
-103.22
-78.48
-59.56
-44.36
-32.12
-22.85
-16.20
-10.01
-0.37
10.63
22.07
32.35
39.75
42.90
41.46
36.14
28.78
21.37
14.68
9.00
3.36
-3.70
-13.30
-25.77
-40.61
-55.59
-68.44
-78.01
-83.80
-86.32
-86.25
-84.00
-79.67
-73.21
-61.83
-43.75
-19.84
6.86
32.00
51.91
64.39
68.54
64.51
58.90
57.21
61.04
67.82
73.37
75.04
72.71
68.09
63.62
70.98
99.14
150.06
218.28
295.33
374.87
454.37
533.96
614.83
709.98
828.50
969.96
1123.62
1274.35
1409.50
1521.45
1606.74
1589.61
1428.99
1135.53
770.34
405.85
89.90
-160.82
-349.73
-488.53
-590.16
-653.52
-677.58
-667.05
-634.04
-593.05
-555.35
-527.06
-510.40
-505.29
-501.16
-488.97
-465.91
-436.45
-407.86
-385.22
-369.88
-360.09
-353.57
-343.61
-327.18
-306.50
-287.44
-274.00
-266.28
-259.79
-248.93
-230.56
-202.39
-165.84
-124.71
-83.45
-45.58
-13.19
13.11
33.19
47.24
57.51
65.89
73.52
80.45
85.32
85.21
77.00
58.07
27.21
-12.82
-56.30
-94.76
-118.56
-120.80
-101.05
-66.01
-27.82
-0.20
8.52
-3.92
-33.04
-69.73
-104.59
-131.51
-147.80
-152.86
-146.40
-128.43
-98.89
-63.21
-29.48
-3.98
8.28
6.55
-5.14
-19.20
-27.69
-25.37
-10.77
14.91
48.99
87.80
126.02
157.75
176.98
178.83
161.54
127.97
86.28
47.20
19.89
8.58
11.93
23.24
34.10
37.54
30.40
13.81
-7.42
-27.15
-40.51
-45.43
-42.88
-35.93
-27.41
-18.86
-11.56
-7.98
-12.73
-30.88
-64.78
-111.15
-161.12
-202.65
-223.61
-218.06
-188.35
-143.05
-92.04
-42.63
2.13
39.54
66.24
78.22
72.60
50.05
15.10
-25.60
-65.63
-99.04
-125.69
-146.21
-160.83
-169.63
-172.37
-168.92
-159.45
-145.32
-128.17
-109.94
-91.53
-72.93
-53.64
-32.89
-10.32
13.79
38.46
62.46
84.65
104.94
124.18
143.85
165.83
191.89
222.99
258.66
296.68
333.05
362.88
381.62
386.80
379.22
362.76
342.82
324.26
309.71
299.22
290.44
280.16
266.17
248.38
228.55
209.12
191.96
177.39
164.21
149.07
127.43
95.36
50.91
-5.24
-70.14
-139.35
-209.80
-274.15
-323.92
-352.96
-359.85
-347.49
-321.14
-286.61
-248.96
-212.29
-179.26
-151.61
-130.03
-113.92
-101.56
-90.72
-79.74
-67.55
-53.76
-38.24
-21.36
-3.86
13.56
30.26
46.15
60.07
70.36
75.36
73.93
65.56
50.18
28.49
1.55
-28.29
-59.27
-90.00
-118.90
-143.76
-162.11
-172.05
-172.49
-163.25
-145.13
-119.97
-90.20
-58.70
-28.70
-3.41
14.34
23.06
23.32
17.26
7.35
-4.09
-14.94
-23.61
-28.07
-26.53
-18.06
-3.09
16.31
37.07
56.00
71.17
82.17
89.81
95.34
100.07
105.11
110.88
116.38
119.03
114.92
99.90
71.71
31.61
-15.14
-60.26
-94.50
-112.34
-113.53
-102.06
-83.51
-62.16
-39.89
-17.29
5.12
25.61
41.51
50.85
53.38
50.42
44.73
38.55
32.69
26.63
18.95
8.43
-4.65
-18.32
-29.53
-35.22
-33.39
-24.45
-11.40
0.55
5.40
-1.68
-22.40
-53.67
-88.03
-115.42
-127.94
-122.48
-102.38
-76.17
-55.00
-46.64
-55.54
-81.48
-119.39
-161.14
-196.62
-215.73
-211.07
-179.89
-125.70
-58.17
10.37
69.21
111.11
133.74
139.71
134.40
124.26
114.85
109.52
103.92
95.20
80.25
56.58
23.63
-17.20
-62.05
-104.22
-140.41
-168.48
-187.80
-199.60
-206.26
-209.39
-209.04
-203.11
-188.75
-163.74
-126.10
-75.69
-15.72
46.92
102.61
141.55
157.76
152.02
132.43
113.17
108.16
124.92
161.33
207.10
248.56
274.49
280.31
268.71
249.02
231.48
223.13
226.27
239.34
258.83
280.99
303.14
323.86
343.96
362.42
375.10
375.00
354.89
310.64
243.30
159.59
62.80
-36.11
-124.00
-190.70
-233.45
-256.37
-265.75
-266.16
-259.19
-245.24
-224.67
-200.66
-178.17
-161.63
-152.74
-149.89
-149.27
-147.17
-141.55
-131.80
-119.76
-108.38
-100.18
-95.83
-94.06
-92.65
-89.88
-85.33
-79.40
-73.52
-69.17
-67.12
-66.91
-67.22
-66.55
-64.17
-60.39
-55.79
-51.34
-48.17
-47.43
-49.58
-53.54
-56.21
-53.04
-39.79
-14.59
20.21
58.83
93.41
117.47
128.22
127.07
118.19
106.05
93.72
82.14
71.23
60.73
51.14
43.31
37.93
34.92
33.49
32.69
31.66
30.67
30.73
33.16
38.34
45.13
50.61
50.87
42.59
24.63
-0.67
-28.43
-53.17
-71.12
-81.19
-84.88
-84.94
-83.99
-83.38
-82.46
-79.73
-74.30
-66.58
-57.93
-50.13
-44.41
-41.44
-41.49
-43.41
-45.77
-47.79
-50.28
-53.91
-58.86
-63.68
-65.87
-62.95
-51.91
-30.86
0.24
39.89
86.61
139.50
198.97
264.87
324.67
363.25
370.22
346.11
300.17
244.39
187.94
137.17
94.88
61.18
36.54
21.17
13.69
9.49
1.30
-19.64
-57.79
-112.60
-177.72
-241.59
-292.25
-321.51
-327.53
-306.50
-266.84
-218.10
-167.46
-119.03
-74.39
-34.68
-1.34
24.02
40.55
47.46
46.76
41.63
34.87
28.83
24.73
23.08
24.06
27.87
33.79
42.27
53.70
67.41
82.76
97.96
110.79
119.43
122.84
120.25
112.41
100.59
86.12
70.10
53.40
36.41
19.35
2.59
-13.52
-28.27
-40.67
-51.61
-59.56
-63.83
-64.18
-60.56
-53.07
-41.95
-27.54
-10.29
9.19
29.94
50.42
69.09
84.64
96.21
103.86
108.35
110.93
113.14
115.73
118.62
120.92
121.21
117.53
109.22
95.60
76.07
54.83
33.76
13.39
-6.89
-28.31
-52.79
-79.26
-106.58
-132.74
-155.50
-174.18
-189.49
-203.44
-218.86
-240.14
-267.85
-303.55
-346.97
-395.15
-442.63
-481.55
-503.63
-503.09
-480.67
-437.89
-382.14
-320.94
-258.70
-195.76
-129.22
-55.87
35.93
123.64
201.40
259.60
291.60
296.68
280.28
251.67
220.31
192.33
167.80
147.87
130.31
114.05
99.75
88.81
82.13
79.94
82.18
88.08
100.62
119.97
143.70
166.09
179.45
177.31
158.13
126.91
92.90
68.11
58.86
64.26
77.08
88.21
91.43
86.80
79.68
76.63
82.24
95.01
109.04
117.25
114.67
99.07
71.17
34.05
-7.41
-46.50
-76.14
-90.08
-85.55
-65.22
-39.27
-21.04
-20.93
-40.96
-73.83
-106.28
-124.85
-121.41
-95.66
-56.51
-15.12
21.51
53.64
85.90
121.46
157.92
186.91
197.69
178.65
124.61
39.92
-63.19
-170.78
-273.16
-366.68
-451.42
-506.85
-513.25
-464.28
-373.60
-264.37
-155.57
-58.33
21.93
83.65
128.41
156.52
169.80
172.63
171.40
172.15
177.79
187.84
200.04
213.15
222.46
224.17
216.93
202.06
181.83
157.61
129.53
97.28
63.38
28.96
-4.69
-35.71
-61.75
-81.05
-93.59
-100.82
-104.56
-106.11
-107.01
-107.86
-108.51
-108.29
-106.83
-104.51
-102.23
-100.82
-100.96
-103.76
-109.72
-117.85
-125.07
-126.68
-118.00
-96.90
-65.29
-29.00
4.16
27.71
38.89
39.14
32.51
23.20
13.54
3.74
-6.79
-18.25
-29.55
-38.82
-44.46
-46.40
-45.02
-41.42
-36.76
-31.20
-24.24
-14.99
-2.87
11.99
28.40
44.58
58.56
68.84
74.90
77.09
76.33
73.65
69.86
65.26
59.75
53.10
45.14
36.14
26.58
17.02
7.97
-0.24
-7.59
-14.40
-21.00
-27.74
-34.78
-42.18
-49.95
-58.10
-66.46
-74.94
-83.53
-92.21
-100.96
-109.75
-118.55
-127.36
-136.16
-144.62
-152.45
-159.40
-165.12
-169.20
-171.16
-170.31
-165.65
-158.92
-150.77
-141.66
-131.93
-121.92
-111.83
-101.71
-91.51
-81.15
-70.55
-59.33
-47.28
-34.40
-20.96
-7.33
5.99
18.46
29.52
38.60
45.51
50.09
52.26
51.95
49.31
44.63
38.42
31.29
23.86
16.89
10.96
6.35
3.03
0.82
-0.55
-1.37
-1.91
-2.44
-3.26
-4.79
-7.54
-11.81
-17.68
-24.91
-32.97
-41.03
-48.21
-53.81
-57.56
-59.72
-60.64
-60.66
-59.76
-57.48
-53.01
-45.54
-34.87
-21.65
-7.51
6.18
18.07
27.33
34.08
39.38
45.20
54.14
69.07
92.11
125.12
167.15
214.23
260.61
300.84
332.03
354.76
372.15
387.78
406.84
431.73
460.91
489.67
512.18
523.91
522.93
509.68
485.98
459.44
437.98
426.86
427.35
437.30
453.57
473.69
496.62
522.12
556.69
606.65
673.77
753.78
838.28
918.44
988.12
1045.09
1045.35
962.42
793.25
560.08
300.15
49.27
-168.98
-344.92
-479.79
-575.55
-644.63
-698.88
-747.83
-798.03
-851.91
-907.07
-958.00
-992.11
-999.95
-974.89
-916.97
-833.23
-734.71
-632.79
-536.49
-451.53
-380.95
-326.84
-287.03
-256.54
-230.45
-205.32
-179.99
-154.91
-131.26
-110.31
-93.86
-81.98
-73.00
-64.89
-56.15
-46.29
-35.60
-24.86
-14.95
-7.02
-1.54
2.03
4.67
7.29
10.40
14.11
18.17
22.13
25.43
27.62
28.72
29.16
29.66
30.94
33.65
38.17
44.60
52.75
62.28
72.52
82.63
91.84
98.93
102.75
102.31
96.94
86.36
71.12
52.03
30.33
7.80
-13.99
-33.73
-50.61
-64.20
-74.69
-82.18
-87.31
-90.80
-93.54
-96.45
-100.33
-105.80
-113.09
-122.93
-133.46
-142.86
-149.05
-150.24
-145.31
-133.97
-116.93
-94.35
-68.97
-42.27
-15.37
11.33
37.56
62.82
86.08
105.85
120.54
128.81
130.99
127.74
120.43
110.25
97.89
83.06
65.00
43.19
17.59
-10.42
-39.30
-67.22
-91.81
-110.05
-118.66
-115.30
-99.98
-76.16
-49.77
-27.56
-14.31
-11.20
-15.74
-23.94
-32.18
-38.11
-40.95
-40.10
-34.41
-22.31
-2.56
24.70
57.58
92.49
125.01
149.91
162.38
159.50
141.52
112.51
79.35
49.66
28.45
17.54
15.41
18.98
25.75
34.75
45.94
58.76
71.23
79.95
81.83
75.46
61.82
43.45
23.37
3.63
-15.22
-33.69
-52.93
-73.72
-96.16
-119.13
-140.02
-154.79
-159.27
-149.77
-125.95
-91.63
-53.76
-20.25
3.12
14.65
16.71
13.72
9.87
7.03
4.82
2.06
-1.86
-6.32
-9.92
-11.55
-11.13
-9.67
-8.72
-9.57
-12.57
-17.22
-22.71
-28.38
-34.07
-40.08
-46.97
-55.13
-64.18
-73.02
-80.09
-83.68
-82.46
-75.71
-63.29
-45.52
-23.14
2.79
30.76
58.88
84.96
106.81
122.61
131.52
133.83
130.70
123.54
113.34
100.37
84.21
64.56
41.58
16.75
-7.08
-26.51
-38.37
-40.43
-31.77
-13.40
11.42
36.30
53.86
57.71
45.09
18.44
-15.03
-46.08
-67.42
-76.20
-74.68
-67.81
-60.59
-55.90
-53.82
-51.75
-45.90
-32.57
-9.10
23.88
62.90
101.71
132.93
150.62
152.28
138.99
112.92
79.65
42.84
4.65
-33.29
-68.50
-98.20
-118.82
-127.72
-124.29
-109.76
-87.38
-60.95
-33.57
-7.16
17.22
39.60
60.11
78.38
94.00
106.27
115.30
121.72
125.96
126.95
122.08
108.12
83.40
49.84
12.68
-21.04
-45.53
-58.40
-61.22
-57.87
-52.31
-46.72
-41.29
-35.49
-29.23
-23.41
-19.36
-17.81
-18.26
-19.23
-18.92
-15.83
-9.63
-0.94
8.98
18.97
28.48
37.63
46.79
56.28
65.76
74.05
79.41
79.95
74.28
61.99
43.79
21.21
-3.67
-28.71
-52.02
-72.13
-88.05
-98.91
-104.18
-103.72
-97.68
-86.74
-72.13
-55.54
-38.90
-24.40
-13.55
-7.48
-6.74
-11.22
-20.23
-32.66
-47.15
-62.13
-76.30
-88.13
-96.43
-100.48
-100.04
-95.29
-86.71
-75.04
-59.31
-41.74
-23.59
-5.72
11.36
27.25
41.58
54.16
65.04
74.35
82.28
89.56
96.78
104.40
112.63
121.08
129.03
135.92
140.47
141.44
138.17
130.30
117.76
100.87
80.07
56.15
30.77
5.58
-17.84
-37.96
-53.74
-64.86
-71.71
-75.69
-78.43
-81.22
-84.65
-88.53
-91.88
-93.56
-93.72
-91.21
-86.29
-79.83
-72.55
-64.93
-56.99
-48.53
-39.80
-31.51
-24.90
-20.67
-20.83
-25.97
-35.80
-49.56
-66.06
-83.24
-97.81
-105.22
-101.39
-84.69
-57.03
-24.04
6.89
29.45
40.79
41.70
35.63
26.43
16.58
7.09
-1.94
-10.54
-18.55
-25.82
-33.01
-41.38
-51.75
-63.93
-76.24
-85.41
-88.08
-82.22
-67.90
-47.19
-23.04
1.86
25.82
48.42
69.83
90.60
110.72
129.82
146.93
160.15
166.30
160.96
141.56
108.55
68.40
32.11
11.59
14.16
38.96
77.48
116.67
145.55
158.88
157.93
147.29
131.33
111.85
87.41
58.47
26.25
-5.84
-33.72
-54.22
-66.86
-73.63
-77.86
-82.89
-90.18
-99.75
-110.11
-119.52
-126.81
-131.95
-135.76
-139.36
-143.07
-145.81
-145.80
-140.85
-129.27
-110.51
-85.54
-56.49
-26.30
2.08
26.74
46.55
61.40
71.85
78.76
82.99
85.12
85.97
85.41
83.56
80.46
76.44
72.12
68.25
65.50
64.13
64.02
64.51
64.83
64.25
62.58
60.56
59.60
61.15
66.16
74.64
85.30
96.41
105.50
110.53
110.55
105.66
96.43
83.84
69.14
53.70
38.72
24.41
9.68
-7.68
-29.67
-56.35
-84.56
-108.33
-121.23
-119.51
-103.89
-79.08
-51.48
-26.25
-5.66
10.83
24.69
36.29
44.51
47.43
43.68
33.40
18.24
0.32
-18.25
-36.02
-51.98
-65.11
-74.24
-78.51
-78.04
-74.43
-70.10
-67.21
-66.46
-66.71
-65.83
-61.71
-53.24
-40.60
-24.99
-7.82
9.66
26.41
41.41
52.99
59.98
62.23
60.85
57.74
54.98
53.88
54.76
56.92
57.62
54.67
47.64
38.41
30.77
29.21
37.32
56.37
84.46
113.95
136.33
145.50
139.83
121.80
96.45
69.22
43.85
25.19
11.52
-0.70
-14.54
-31.40
-51.82
-75.92
-103.40
-133.43
-164.74
-200.95
-244.39
-294.10
-345.67
-394.11
-435.74
-468.71
-492.66
-481.77
-424.30
-327.57
-213.90
-104.54
-10.45
66.69
129.38
180.68
223.10
253.82
271.12
276.29
274.64
270.32
265.39
259.82
252.31
241.23
221.74
190.95
149.59
103.63
59.34
21.20
-8.48
-29.22
-41.76
-49.70
-55.98
-62.16
-67.93
-72.50
-75.21
-75.87
-74.60
-71.96
-69.94
-69.92
-72.77
-78.12
-84.95
-91.98
-98.09
-102.45
-104.54
-107.07
-109.08
-110.50
-111.25
-111.62
-112.39
-114.08
-116.06
-116.08
-110.97
-97.67
-75.72
-46.88
-14.92
15.48
40.65
58.92
70.51
76.56
78.17
75.36
68.76
59.66
49.63
40.37
33.41
29.60
29.10
31.88
37.88
47.32
61.20
79.80
102.28
126.85
151.06
172.20
187.69
188.31
168.83
130.12
78.53
22.57
-30.55
-76.71
-114.58
-144.68
-168.53
-187.18
-200.61
-208.83
-212.38
-211.44
-206.64
-199.04
-190.07
-181.12
-172.12
-162.03
-149.85
-134.87
-115.37
-90.82
-62.48
-33.17
-6.05
17.65
38.74
58.74
79.88
106.42
140.55
181.24
224.51
265.45
301.01
330.59
354.69
375.50
398.93
429.80
470.19
518.37
569.48
617.18
654.44
674.31
651.52
575.86
457.01
321.86
199.24
105.66
42.78
7.85
-11.73
-23.66
-27.92
-23.61
-12.47
0.25
7.17
4.42
-7.92
-27.55
-49.59
-67.30
-76.58
-77.37
-73.24
-68.80
-66.93
-68.08
-71.31
-74.27
-73.86
-69.16
-62.25
-57.34
-58.79
-68.97
-87.66
-112.87
-141.22
-169.21
-194.98
-218.74
-241.96
-266.03
-291.13
-316.42
-341.04
-364.57
-386.89
-407.48
-424.73
-436.17
-439.27
-432.92
-418.12
-397.53
-373.52
-347.07
-317.68
-285.14
-251.47
-221.61
-201.57
-195.28
-202.24
-217.51
-234.58
-248.50
-257.66
-263.55
-267.71
-269.40
-264.58
-247.37
-212.18
-156.47
-81.07
10.24
110.76
213.40
312.31
403.94
487.08
562.48
630.27
689.71
738.38
769.42
775.03
750.26
696.05
619.66
533.98
450.68
378.74
322.18
275.27
228.55
174.59
111.86
44.47
-19.78
-78.36
-132.44
-185.70
-247.24
-323.57
-414.04
-510.53
-601.48
-675.51
-731.25
-771.83
-769.97
-706.41
-580.04
-411.83
-231.83
-78.37
51.61
162.48
254.31
324.52
365.15
368.86
335.62
272.43
195.34
127.26
83.68
71.08
86.48
116.03
143.99
159.54
157.85
139.18
107.75
65.00
13.71
-40.42
-92.49
-142.10
-183.77
-212.44
-225.62
-223.29
-210.51
-193.54
-178.03
-170.01
-172.90
-185.51
-202.97
-217.41
-220.14
-206.54
-177.78
-135.95
-91.36
-55.67
-35.62
-30.75
-33.75
-34.54
-26.51
-9.47
11.59
28.73
36.70
35.73
29.96
24.58
22.90
25.02
28.64
32.48
36.12
41.18
50.63
67.25
91.76
122.32
154.94
185.07
210.73
231.05
246.72
259.57
271.83
285.49
302.19
322.99
347.87
376.96
406.66
430.06
439.08
427.94
395.80
347.35
291.04
223.06
146.25
66.84
-7.27
-69.32
-115.36
-144.33
-157.69
-158.93
-153.09
-143.29
-132.44
-122.58
-114.60
-108.01
-101.66
-94.73
-87.12
-79.82
-72.84
-66.65
-61.77
-58.20
-55.07
-50.90
-44.54
-35.39
-23.95
-10.78
3.01
16.12
27.67
37.44
46.71
54.71
60.34
61.75
57.24
45.37
25.45
-2.32
-37.13
-76.05
-115.59
-150.70
-175.50
-184.55
-175.41
-150.26
-115.74
-80.61
-52.44
-35.27
-28.34
-27.98
-30.11
-32.34
-34.27
-36.65
-39.77
-42.91
-44.91
-44.82
-42.91
-40.58
-39.73
-41.83
-47.18
-54.87
-63.20
-70.33
-74.84
-76.16
-74.43
-70.73
-65.05
-57.34
-47.28
-34.67
-19.72
-3.33
12.96
27.24
37.78
43.61
44.54
41.25
34.99
27.17
19.00
11.42
5.03
0.15
-2.99
-4.37
-4.07
-2.39
0.19
2.91
4.97
5.75
4.85
2.37
-1.32
-5.58
-9.89
-13.71
-16.81
-19.17
-20.91
-22.19
-22.75
-22.36
-20.91
-18.91
-17.06
-16.52
-18.51
-23.82
-32.40
-42.65
-52.32
-59.17
-62.01
-60.53
-55.77
-49.43
-42.95
-36.87
-29.40
-17.82
0.84
25.53
54.23
83.48
109.63
129.97
143.62
152.97
161.52
172.93
189.70
213.40
244.39
282.01
324.06
356.98
367.07
343.66
285.34
201.73
109.81
26.22
-38.52
-82.02
-108.30
-122.39
-128.36
-127.45
-119.78
-106.07
-89.18
-73.50
-63.21
-60.86
-64.05
-71.09
-79.91
-89.83
-101.96
-118.73
-142.60
-174.88
-215.20
-260.62
-306.74
-347.68
-377.27
-390.49
-385.00
-361.72
-324.41
-278.50
-228.72
-178.08
-129.72
-85.91
-48.27
-18.12
3.46
16.29
21.19
20.14
15.44
9.05
2.24
-4.70
-12.00
-20.24
-29.51
-39.35
-48.89
-57.35
-64.24
-69.41
-73.14
-75.86
-77.95
-79.37
-79.72
-78.45
-75.19
-70.00
-63.16
-55.15
-46.33
-36.73
-25.81
-12.79
2.86
21.11
41.21
62.08
82.55
101.87
119.94
137.37
155.00
173.51
193.11
213.38
233.37
251.62
266.40
275.97
279.30
276.22
267.53
254.87
240.28
225.64
212.22
200.42
190.23
182.22
177.36
177.07
182.93
196.01
215.96
240.33
264.55
283.17
292.86
292.70
284.53
272.18
259.86
250.50
244.83
241.62
239.14
238.26
240.34
246.31
255.95
267.49
278.32
285.80
287.97
284.04
276.31
265.93
251.89
231.10
200.13
157.22
103.58
43.24
-32.51
-121.87
-215.68
-300.76
-366.33
-408.22
-428.46
-432.04
-424.45
-410.20
-390.37
-366.19
-339.62
-313.38
-289.91
-270.58
-255.22
-242.89
-232.25
-220.37
-205.69
-188.35
-169.97
-152.51
-137.26
-124.20
-112.68
-101.69
-89.57
-76.06
-62.49
-51.32
-45.11
-45.31
-51.42
-61.37
-71.93
-79.25
-80.66
-75.05
-62.97
-46.01
-26.38
-6.11
12.19
26.10
34.54
38.05
39.20
41.34
46.92
55.13
63.42
67.13
62.66
49.58
30.35
9.34
-9.61
-24.63
-36.07
-44.99
-52.93
-60.46
-67.59
-74.95
-83.82
-95.54
-110.42
-127.93
-144.80
-157.66
-163.08
-158.73
-143.92
-119.75
-88.83
-54.77
-22.69
4.08
24.07
39.27
53.72
71.34
93.70
119.50
145.17
167.17
185.39
199.26
209.95
218.01
222.26
220.37
210.11
190.84
162.91
131.48
100.28
71.71
46.13
21.92
-2.65
-28.76
-56.11
-82.95
-106.37
-124.69
-135.99
-139.02
-133.49
-120.49
-103.00
-85.53
-72.82
-67.20
-68.88
-73.99
-77.12
-74.02
-63.77
-48.89
-33.54
-21.14
-12.71
-7.27
-2.80
1.81
6.25
9.23
9.77
8.01
5.26
3.10
2.91
5.05
8.83
12.98
16.34
18.31
19.11
19.68
21.06
23.95
28.42
33.76
38.85
42.59
44.16
43.33
40.45
36.33
31.86
28.00
25.35
24.14
24.07
24.49
24.40
22.97
19.85
15.27
10.05
5.05
0.88
-2.66
-6.45
-11.82
-19.85
-30.66
-43.07
-54.82
-63.74
-68.43
-68.96
-66.89
-64.54
-63.90
-65.79
-70.06
-75.91
-82.67
-89.31
-93.91
-93.99
-87.85
-75.39
-59.26
-44.90
-38.15
-42.48
-56.99
-75.94
-91.85
-99.86
-98.78
-90.94
-80.48
-69.81
-58.11
-42.06
-17.87
14.89
50.77
81.78
100.72
103.56
91.46
69.37
43.79
20.79
3.56
-8.83
-17.34
-20.93
-20.18
-14.80
-6.14
-3.00
-13.26
-32.08
-58.34
-93.72
-134.58
-175.20
-209.72
-234.47
-248.66
-252.92
-249.14
-240.80
-229.74
-215.91
-199.12
-178.99
-155.20
-127.23
-94.37
-57.62
-21.50
8.57
28.93
39.46
45.28
55.11
77.56
116.79
169.52
225.26
272.13
302.68
316.17
317.47
312.37
303.06
286.87
259.26
218.43
169.70
125.07
98.14
97.57
123.08
166.31
215.23
259.36
292.36
311.51
315.42
302.55
271.93
225.69
170.75
117.74
77.49
56.61
54.85
65.96
80.92
91.96
94.96
89.55
77.73
61.93
43.81
23.77
1.55
-22.90
-48.83
-74.48
-97.71
-116.42
-128.55
-132.74
-128.90
-118.26
-103.33
-87.23
-73.10
-63.39
-59.27
-59.40
-61.19
-62.42
-62.27
-61.57
-61.98
-65.52
-73.93
-87.75
-103.61
-116.34
-121.28
-116.29
-101.86
-80.40
-55.78
-32.72
-15.81
-5.28
-0.34
-1.62
-11.84
-33.17
-64.24
-99.52
-131.16
-151.29
-149.61
-119.02
-58.81
25.28
124.66
231.49
339.73
443.95
510.18
510.42
440.39
323.67
192.11
67.00
-43.30
-137.90
-218.78
-288.20
-343.09
-379.37
-396.98
-400.35
-395.71
-387.74
-378.37
-367.74
-355.32
-336.94
-308.38
-268.44
-220.01
-168.06
-119.66
-79.58
-50.59
-34.05
-27.73
-27.02
-28.21
-29.94
-33.82
-39.84
-45.96
-49.31
-48.05
-40.56
-24.16
1.18
32.02
59.31
77.20
83.37
79.08
66.51
49.11
34.77
29.97
37.71
52.30
71.26
94.37
123.66
159.59
201.56
253.27
316.48
389.12
459.02
519.44
567.74
605.63
634.19
620.39
545.18
409.80
276.05
163.92
78.21
5.18
-58.02
-111.70
-154.92
-181.35
-186.98
-172.93
-152.22
-134.04
-124.11
-122.93
-129.35
-139.90
-145.36
-137.57
-112.81
-78.25
-40.47
-5.71
22.14
39.54
44.82
41.12
32.71
23.26
11.54
-1.92
-16.07
-29.30
-41.51
-53.46
-64.75
-74.69
-82.41
-88.66
-92.57
-92.80
-87.94
-78.02
-64.33
-48.63
-33.37
-21.19
-15.14
-16.82
-26.29
-41.96
-61.25
-81.03
-98.08
-109.71
-114.16
-110.82
-100.10
-83.17
-61.69
-37.42
-12.35
11.47
32.13
48.18
59.16
65.63
68.84
70.06
70.14
69.23
67.05
63.53
59.14
55.02
52.43
52.31
54.68
58.84
63.68
68.25
72.15
75.55
78.86
82.23
85.20
86.69
85.29
79.97
70.56
57.98
43.91
30.23
18.19
8.01
-1.22
-11.23
-23.92
-40.60
-61.47
-85.42
-110.18
-132.93
-151.08
-162.84
-167.63
-165.91
-158.68
-147.04
-132.03
-114.64
-96.10
-77.88
-61.62
-48.75
-40.18
-36.23
-36.72
-41.16
-49.04
-59.96
-73.36
-88.30
-103.27
-116.07
-124.22
-125.63
-119.05
-104.41
-82.73
-55.45
-23.88
11.16
49.56
91.43
136.73
185.07
235.63
286.78
335.78
378.29
408.53
420.72
410.92
378.96
329.13
268.97
206.64
148.23
96.22
49.84
7.16
-32.96
-69.71
-100.48
-122.42
-133.90
-135.28
-128.74
-117.36
-103.88
-89.97
-75.99
-61.35
-45.30
-27.44
-8.07
11.72
30.33
46.06
57.40
63.40
63.84
59.19
50.62
39.77
28.55
18.74
11.76
8.20
7.52
8.00
6.82
0.86
-12.18
-33.05
-60.44
-91.32
-121.99
-149.30
-171.28
-187.51
-198.64
-205.65
-209.38
-210.26
-208.45
-204.15
-197.54
-188.69
-177.36
-162.88
-144.58
-122.31
-96.92
-70.40
-45.47
-24.72
-9.89
-1.36
1.97
2.19
1.80
3.10
7.70
15.95
27.06
39.24
50.13
57.71
60.80
59.33
54.22
46.91
38.80
30.97
23.97
17.80
12.23
6.75
0.80
-6.20
-14.75
-25.08
-36.86
-49.27
-60.93
-70.03
-74.88
-74.13
-67.22
-54.48
-37.06
-16.69
4.80
25.77
45.27
63.06
79.47
94.91
109.34
121.74
129.93
131.04
122.10
101.10
67.66
23.53
-27.59
-80.58
-129.79
-169.97
-196.99
-208.50
-204.08
-185.22
-154.86
-116.83
-75.10
-33.22
6.26
41.91
73.04
99.25
119.99
134.49
141.90
141.81
134.51
121.22
103.94
84.95
66.45
50.24
37.51
28.73
23.69
21.54
21.19
21.65
22.31
23.19
24.50
26.37
28.34
29.26
27.52
21.72
11.34
-2.89
-18.81
-33.65
-44.71
-50.30
-50.13
-45.22
-37.28
-28.07
-18.93
-10.58
-3.37
2.59
7.34
11.06
14.15
17.05
19.99
22.71
24.47
24.21
21.11
15.13
7.23
-0.83
-7.12
-10.25
-9.89
-6.83
-2.73
0.45
0.90
-2.58
-10.39
-22.12
-36.54
-51.76
-65.54
-75.73
-80.88
-80.78
-76.38
-69.57
-62.45
-56.63
-52.74
-50.50
-49.10
-47.78
-46.11
-44.03
-41.61
-38.75
-35.09
-30.20
-23.86
-16.29
-8.15
-0.20
6.89
12.66
16.94
19.75
21.18
21.37
20.67
19.54
18.48
17.96
18.15
19.08
20.67
22.94
26.03
30.26
35.75
42.35
49.54
56.54
62.50
66.68
68.59
68.06
65.37
61.09
56.13
51.36
47.33
44.02
40.86
37.04
31.92
25.39
17.73
9.49
1.10
-7.22
-15.23
-22.45
-28.06
-31.14
-31.24
-28.60
-24.19
-19.28
-15.00
-11.84
-9.79
-8.61
-8.05
-8.00
-8.33
-8.77
-8.89
-8.42
-7.39
-6.42
-6.46
-8.18
-11.26
-14.04
-13.96
-8.51
3.48
21.27
42.31
63.34
81.69
96.01
106.23
112.56
114.61
111.18
100.81
82.82
58.00
28.61
-2.43
-32.42
-59.45
-82.24
-99.59
-110.00
-112.00
-104.84
-89.29
-67.99
-45.03
-24.76
-10.67
-4.47
-5.80
-12.67
-22.10
-30.88
-36.28
-36.59
-31.30
-21.20
-8.09
5.57
17.28
25.10
28.03
26.21
20.70
13.07
4.97
-2.28
-7.89
-11.54
-13.29
-13.52
-12.88
-12.07
-11.90
-12.93
-15.36
-19.04
-23.44
-27.88
-31.67
-34.23
-34.97
-33.46
-29.56
-23.53
-16.16
-8.44
-1.20
5.29
11.40
17.86
25.15
33.03
40.56
46.35
49.25
48.79
45.30
39.67
33.00
26.23
20.06
15.08
11.70
10.24
10.58
12.03
13.40
13.22
10.48
4.99
-2.35
-9.95
-16.10
-19.67
-20.44
-19.05
-16.56
-13.89
-11.56
-9.59
-7.69
-5.44
-2.52
1.25
5.87
11.15
16.52
21.11
23.90
24.08
21.36
16.25
9.78
3.27
-2.20
-6.09
-8.49
-9.81
-10.48
-10.67
-10.30
-9.22
-7.37
-4.98
-2.35
0.19
2.50
4.61
6.58
8.55
10.50
12.35
13.84
14.67
14.42
12.74
9.38
4.40
-1.87
-8.94
-16.26
-23.39
-29.89
-35.32
-39.25
-41.28
-41.26
-39.22
-35.55
-30.64
-24.93
-18.71
-12.36
-6.44
-1.76
0.81
0.85
-1.51
-5.39
-9.57
-12.89
-14.76
-15.31
-15.21
-15.38
-16.54
-19.10
-23.19
-28.82
-35.84
-43.91
-52.36
-60.07
-65.74
-68.27
-67.21
-63.05
-57.14
-51.19
-46.45
-43.36
-41.27
-38.82
-34.47
-27.11
-16.41
-2.85
12.56
28.63
44.27
58.59
70.84
80.59
87.64
92.19
94.97
97.09
99.68
103.37
107.88
112.00
114.14
113.10
108.58
101.39
92.88
84.27
76.11
68.35
60.68
53.10
46.06
40.07
35.20
30.71
25.20
17.36
6.73
-5.86
-18.49
-28.75
-34.76
-35.82
-32.68
-27.11
-21.14
-16.36
-13.40
-11.89
-10.91
-9.47
-7.09
-3.94
-0.64
2.01
3.43
3.49
2.56
1.44
1.05
2.13
5.04
9.65
15.41
21.49
27.12
31.93
36.10
40.22
45.10
51.39
59.36
68.41
76.98
83.08
84.99
81.73
73.23
60.05
42.81
21.90
-3.45
-34.90
-74.03
-120.86
-172.82
-224.98
-270.49
-301.72
-311.11
-293.67
-248.13
-177.13
-86.51
15.82
120.51
217.94
299.47
359.37
394.11
402.20
384.02
341.55
277.81
196.16
100.34
-8.46
-120.50
-219.64
-289.86
-323.11
-322.25
-297.30
-259.71
-218.29
-178.31
-142.03
-111.16
-88.04
-74.49
-70.42
-73.00
-77.93
-80.61
-77.81
-68.43
-53.58
-36.49
-20.76
-9.24
-2.82
-0.41
1.07
6.41
19.09
40.01
66.82
94.48
117.48
132.39
139.28
141.33
143.10
147.38
154.23
161.62
167.02
168.94
167.78
165.65
164.88
166.15
166.60
160.90
142.83
107.65
54.00
-15.33
-94.09
-172.14
-234.36
-269.80
-276.33
-260.13
-231.06
-197.40
-163.53
-130.80
-99.36
-70.26
-46.31
-30.17
-22.46
-21.46
-23.79
-25.74
-24.88
-20.43
-13.45
-6.45
-1.94
-1.06
-3.08
-6.21
-8.40
-8.18
-4.74
1.69
10.27
20.26
31.54
44.72
60.50
79.10
99.73
121.32
141.30
156.82
165.45
165.77
157.49
141.40
119.03
91.63
62.37
33.53
6.94
-16.12
-34.76
-48.58
-57.69
-62.55
-63.99
-62.93
-60.61
-57.86
-55.17
-52.66
-50.28
-47.91
-45.36
-42.55
-39.62
-37.04
-35.08
-33.79
-32.92
-32.02
-30.66
-28.58
-25.92
-23.22
-21.27
-20.57
-21.14
-22.41
-23.45
-23.45
-22.37
-20.46
-18.79
-18.63
-20.73
-24.96
-30.07
-34.44
-36.85
-36.79
-35.12
-33.46
-33.39
-35.71
-40.51
-47.40
-56.23
-66.95
-78.74
-89.96
-97.86
-99.91
-94.86
-84.42
-71.15
-58.17
-46.83
-35.64
-21.44
-1.90
21.95
45.73
62.44
67.67
61.69
49.55
38.37
33.38
35.57
42.01
48.28
51.67
53.09
55.73
62.95
76.08
93.45
111.34
126.01
135.31
138.98
138.37
134.89
128.84
119.06
103.60
80.83
50.24
13.67
-26.10
-65.25
-99.33
-123.70
-134.29
-129.06
-109.45
-79.77
-47.02
-18.45
1.18
10.88
12.95
11.11
8.31
5.77
3.30
0.26
-3.31
-6.35
-7.52
-6.21
-3.01
0.59
3.00
3.24
1.41
-1.50
-4.12
-5.36
-4.91
-3.29
-1.54
-0.70
-1.35
-3.40
-6.13
-8.61
-10.19
-10.72
-10.58
-10.53
-11.44
-13.93
-18.32
-24.51
-32.23
-41.31
-51.66
-63.17
-75.55
-88.24
-100.18
-110.24
-116.79
-118.35
-114.04
-103.72
-88.05
-68.35
-46.27
-23.53
-1.57
18.64
36.48
51.57
63.55
71.94
76.25
76.34
72.53
65.73
57.42
49.15
42.02
36.35
31.61
26.66
20.62
13.41
6.03
0.40
-1.46
1.67
9.43
20.01
30.66
39.05
44.00
45.91
46.20
46.60
48.42
52.01
57.31
63.56
68.82
69.34
60.24
37.45
0.72
-44.64
-88.60
-119.82
-130.31
-118.89
-91.35
-57.46
-26.56
-3.93
9.67
16.27
18.37
17.45
14.27
10.04
7.43
8.79
17.37
35.46
62.75
96.49
132.17
165.38
193.37
215.76
234.09
250.77
267.33
282.85
294.78
300.16
297.41
287.03
271.06
251.53
229.37
203.49
170.29
125.27
64.80
-12.35
-104.01
-205.00
-308.17
-405.77
-485.84
-537.24
-552.66
-531.42
-479.69
-407.33
-324.28
-238.50
-155.14
-76.81
-5.45
57.77
112.25
157.52
193.65
221.71
241.95
253.59
255.35
245.49
222.77
187.36
141.20
88.76
36.00
-10.44
-44.54
-62.28
-62.93
-49.20
-22.66
11.84
48.65
81.79
106.57
119.95
120.22
106.22
77.49
34.60
-20.89
-85.28
-154.26
-222.19
-283.07
-332.24
-367.64
-389.62
-400.23
-402.59
-399.87
-395.66
-390.68
-381.94
-363.37
-327.82
-269.88
-188.76
-90.11
21.16
128.94
214.57
266.16
283.82
276.82
256.71
231.32
203.24
172.28
135.31
92.35
46.95
4.14
-31.81
-58.40
-74.74
-80.72
-73.86
-51.95
-17.23
23.14
59.04
81.69
87.98
81.46
69.74
59.99
54.70
52.72
51.61
50.16
48.78
48.78
50.80
54.04
56.48
55.43
49.80
40.72
30.91
23.30
19.60
19.71
22.04
24.29
24.37
21.38
15.95
9.88
5.18
3.10
3.81
6.31
8.97
10.33
9.62
6.97
3.50
0.65
-0.52
0.34
2.88
6.25
9.92
14.10
19.52
27.57
39.40
55.17
73.76
93.15
109.91
120.97
124.34
119.47
107.14
88.88
66.10
39.57
10.78
-19.26
-49.07
-76.67
-100.26
-118.95
-132.82
-142.35
-146.99
-144.98
-133.86
-112.17
-81.27
-45.75
-12.20
13.55
28.91
35.49
36.76
35.01
29.68
18.21
-1.08
-26.06
-50.24
-65.38
-65.97
-52.42
-31.25
-11.69
-1.34
-2.72
-13.24
-27.67
-41.46
-52.74
-62.11
-70.93
-79.03
-84.51
-84.68
-77.61
-62.96
-42.37
-18.91
4.32
25.22
43.19
58.89
73.45
87.66
101.39
113.44
122.12
126.04
124.70
118.63
109.03
97.19
83.99
69.64
53.94
36.68
18.35
0.53
-14.55
-24.25
-26.06
-18.36
-1.04
23.77
51.66
76.74
93.42
98.40
92.12
78.81
64.59
54.82
51.95
55.32
62.31
69.96
75.93
78.26
75.51
66.69
51.80
32.32
11.10
-8.75
-25.48
-39.56
-53.42
-69.20
-87.26
-105.97
-122.95
-136.60
-147.15
-156.55
-163.53
-167.77
-168.50
-164.83
-156.64
-145.05
-131.67
-117.67
-103.64
-89.83
-77.22
-66.50
-57.41
-48.22
-36.05
-17.26
10.50
46.40
86.18
123.46
153.15
172.65
181.46
178.73
162.75
131.15
82.32
16.99
-60.77
-140.65
-206.92
-244.23
-246.18
-216.66
-165.62
-103.23
-37.31
26.83
85.72
137.02
181.40
218.04
245.59
263.20
270.66
267.87
254.43
229.99
187.23
126.47
52.60
-25.66
-96.80
-148.72
-172.31
-164.45
-129.57
-79.20
-26.60
16.11
41.83
50.02
44.97
32.45
16.83
0.32
-17.71
-39.19
-65.60
-98.06
-135.96
-176.40
-213.56
-240.14
-244.28
-222.17
-175.27
-109.74
-34.26
43.29
116.37
180.46
233.02
270.81
290.39
291.58
276.74
249.17
212.81
168.18
117.90
64.15
8.44
-47.74
-100.43
-144.55
-179.08
-201.02
-210.14
-209.85
-206.18
-206.81
-217.27
-238.12
-264.69
-288.61
-299.49
-290.08
-258.95
-210.75
-156.09
-106.84
-72.28
-53.42
-49.47
-53.92
-57.92
-54.09
-38.62
-14.46
12.77
37.22
54.83
65.47
73.11
82.86
99.16
128.05
168.88
218.56
270.46
315.49
346.47
358.86
350.75
312.54
248.19
164.14
69.78
-23.83
-113.12
-191.89
-253.28
-292.44
-308.21
-300.63
-274.02
-227.95
-169.91
-112.45
-64.38
-28.58
-0.92
26.08
64.17
114.48
173.97
233.36
281.04
312.10
327.23
331.22
328.59
322.90
296.24
244.19
182.45
116.28
51.01
-13.51
-73.92
-127.82
-173.48
-210.83
-236.45
-247.85
-244.56
-222.38
-179.83
-120.00
-51.63
15.03
70.82
112.67
139.99
152.88
154.77
149.53
141.30
132.89
126.27
122.14
121.11
120.83
115.34
99.25
69.43
27.59
-20.11
-64.79
-98.71
-117.41
-121.77
-116.81
-107.89
-98.80
-90.75
-83.75
-77.49
-72.34
-68.84
-67.01
-65.99
-64.01
-59.33
-50.74
-38.60
-24.05
-8.59
6.59
21.03
35.00
48.15
59.54
67.57
70.25
65.71
52.56
30.29
-0.51
-35.94
-70.25
-96.56
-108.75
-104.06
-84.58
-56.87
-29.84
-10.93
-3.76
-7.56
-18.61
-32.74
-47.06
-60.39
-72.05
-81.55
-87.04
-86.26
-78.05
-62.65
-41.79
-17.82
6.57
29.54
49.66
65.95
78.05
85.67
89.06
89.19
87.81
86.88
88.53
94.06
103.59
116.18
129.88
142.58
152.68
159.10
161.29
159.74
155.70
150.49
144.76
137.34
125.42
105.75
76.07
37.62
-4.17
-40.89
-64.69
-70.47
-57.60
-29.30
9.32
52.92
97.51
140.79
180.97
215.48
241.48
256.65
260.03
252.35
235.06
209.16
176.30
138.05
94.86
47.78
-0.81
-47.29
-87.48
-117.60
-135.91
-141.78
-135.82
-121.96
-103.44
-81.14
-53.93
-20.46
20.18
65.36
111.68
155.46
187.81
201.91
196.24
174.22
140.90
102.05
58.25
9.93
-41.81
-103.77
-179.90
-266.99
-355.57
-435.75
-498.77
-546.58
-583.40
-613.67
-652.47
-710.73
-788.59
-875.97
-959.77
-1025.88
-1072.31
-1099.47
-1038.04
-854.53
-570.00
-249.03
46.03
257.65
408.90
522.18
611.84
685.48
738.47
762.85
758.80
735.78
706.11
683.07
667.76
658.13
651.60
636.85
604.82
554.04
489.77
418.86
348.85
279.74
211.55
148.29
91.58
43.91
7.57
-18.00
-38.06
-58.85
-88.72
-133.48
-191.18
-256.30
-320.96
-378.22
-424.51
-459.41
-482.97
-496.52
-505.40
-512.78
-519.24
-522.72
-520.89
-512.62
-497.10
-473.04
-439.79
-405.01
-376.99
-361.15
-358.84
-369.45
-391.88
-423.34
-459.31
-450.95
-371.27
-228.52
-60.68
94.76
219.65
312.52
380.04
430.13
469.31
494.84
504.09
498.67
484.91
471.06
460.70
454.31
450.04
445.63
433.37
407.78
368.38
319.40
265.96
210.90
158.71
112.28
73.42
39.23
7.39
-22.05
-46.97
-65.54
-77.83
-85.15
-89.82
-93.18
-97.91
-105.14
-114.31
-123.96
-133.08
-141.75
-150.38
-162.59
-175.80
-188.21
-197.79
-202.87
-202.84
-198.80
-192.75
-187.12
-184.21
-184.89
-189.28
-195.86
-201.57
-202.32
-194.15
-174.31
-143.40
-105.74
-67.35
-33.99
-8.28
11.39
30.05
49.00
69.98
92.43
113.10
127.48
131.56
123.93
106.41
83.08
58.29
35.24
13.70
-9.43
-37.96
-74.04
-116.20
-159.54
-197.46
-224.52
-237.89
-238.34
-229.09
-213.75
-195.02
-174.19
-151.76
-128.48
-105.98
-86.28
-71.24
-61.58
-56.35
-53.26
-49.53
-43.05
-33.08
-20.39
-6.69
6.17
16.85
25.08
31.50
37.33
43.69
51.21
59.85
69.04
77.96
85.87
92.43
97.82
102.66
107.88
114.32
122.57
132.70
144.26
156.47
168.57
180.15
191.26
202.40
214.25
227.42
242.32
259.18
277.86
297.55
316.56
331.96
340.30
338.83
326.36
303.73
273.66
239.69
204.97
171.49
140.00
110.87
85.34
65.23
52.14
46.35
46.34
49.16
51.65
51.42
47.56
41.58
35.62
31.15
28.31
26.20
23.60
19.62
13.78
6.29
0.70
0.25
5.85
15.24
24.58
30.73
32.83
32.33
32.24
41.28
65.68
105.25
153.19
200.28
239.53
268.45
288.05
301.15
319.47
352.42
401.83
460.53
516.92
560.04
582.02
578.20
548.12
508.36
479.11
476.44
507.04
569.89
659.58
767.61
882.24
919.46
824.96
599.47
300.82
-0.28
-259.54
-463.90
-617.65
-730.82
-812.51
-858.04
-863.97
-835.13
-785.93
-733.34
-690.15
-659.12
-637.07
-618.67
-590.78
-545.16
-482.73
-413.50
-350.30
-301.76
-269.59
-250.75
-239.61
-224.64
-196.75
-154.15
-101.75
-49.11
-9.11
8.20
-0.98
-31.21
-66.95
-92.57
-99.08
-86.98
-63.81
-37.96
-14.33
6.39
26.16
47.81
71.12
93.45
112.29
124.27
128.21
125.36
118.35
109.55
100.32
89.86
76.85
60.34
39.91
15.94
-10.69
-39.30
-70.17
-98.02
-120.20
-135.96
-146.28
-153.22
-158.71
-163.76
-168.18
-170.82
-170.16
-165.86
-158.52
-149.28
-139.88
-132.06
-126.88
-124.16
-123.04
-122.58
-122.92
-124.16
-125.01
-122.54
-113.29
-95.06
-68.53
-38.22
-10.64
8.30
16.39
15.27
10.22
5.09
0.47
-6.07
-17.47
-33.81
-49.94
-59.37
-56.02
-37.94
-9.01
23.28
51.12
70.09
80.47
85.55
88.79
91.91
94.25
93.43
87.88
77.92
66.00
56.05
51.08
51.76
56.50
62.09
64.68
61.51
51.72
35.22
13.87
-8.88
-28.63
-40.09
-38.70
-22.70
5.87
40.71
73.38
96.68
106.88
103.34
88.15
64.21
32.52
-3.90
-42.27
-80.97
-116.19
-142.97
-158.12
-160.72
-152.00
-134.37
-110.55
-83.14
-54.29
-24.81
5.58
35.72
63.64
87.28
104.97
116.41
122.39
124.58
125.58
129.33
137.49
149.98
165.45
181.54
196.03
206.77
212.18
202.28
178.28
144.17
104.65
63.81
24.55
-11.22
-42.61
-69.43
-91.76
-108.28
-119.32
-126.04
-130.24
-134.04
-139.38
-147.62
-158.98
-173.19
-186.29
-194.64
-195.07
-185.72
-166.33
-138.24
-103.75
-65.43
-25.31
14.46
51.94
85.81
115.27
140.15
160.55
176.21
185.47
185.38
172.98
146.71
108.38
63.65
20.59
-13.44
-34.64
-44.04
-45.95
-45.05
-44.07
-43.06
-40.61
-35.60
-28.61
-21.95
-18.19
-18.62
-22.38
-26.63
-27.74
-23.23
-12.41
3.26
20.80
36.88
49.07
55.42
55.15
48.58
37.24
24.12
13.22
8.30
10.96
19.92
30.56
37.27
36.13
26.66
11.63
-4.57
-18.13
-27.31
-32.52
-35.48
-38.13
-41.38
-45.81
-51.62
-58.65
-65.95
-71.72
-74.03
-71.51
-63.93
-52.38
-38.87
-25.44
-13.52
-3.72
3.76
8.68
10.69
9.59
5.87
0.86
-3.44
-5.22
-3.72
0.16
4.40
6.95
6.79
4.41
1.44
-0.29
0.25
2.98
6.95
10.80
13.59
15.01
15.26
14.81
14.24
13.99
14.37
15.34
16.54
17.43
17.50
16.58
14.91
12.98
11.10
9.22
6.99
4.02
0.35
-3.25
-5.82
-6.59
-5.61
-3.64
-1.69
-0.32
0.74
2.30
5.04
8.80
12.58
15.09
15.47
13.78
10.83
7.71
5.12
3.14
1.37
-0.74
-3.44
-6.64
-9.94
-12.91
-15.19
-16.64
-17.22
-16.99
-16.12
-14.88
-13.64
-12.59
-11.76
-11.03
-10.35
-9.67
-9.05
-8.52
-8.01
-7.34
-6.22
-4.35
-1.84
0.78
2.87
4.13
4.66
4.95
5.49
6.62
8.57
10.87
12.73
13.51
13.34
13.06
13.72
16.17
20.99
28.38
37.44
46.21
52.65
55.62
55.16
52.03
47.08
41.06
34.55
27.12
17.20
3.01
-16.56
-42.25
-74.89
-115.41
-163.56
-209.74
-240.09
-243.63
-218.84
-173.03
-117.05
-60.34
-8.83
35.51
73.63
107.76
138.70
163.94
180.15
184.97
177.50
158.04
127.64
83.68
29.99
-26.32
-76.23
-110.61
-123.13
-113.02
-85.75
-50.88
-17.96
6.94
21.59
27.23
27.07
23.99
19.41
13.65
7.16
1.46
-1.31
-0.35
3.35
7.75
10.75
10.92
8.27
4.04
0.09
-1.74
-1.04
1.38
3.96
5.30
4.81
2.84
0.36
-1.68
-2.78
-3.45
-4.69
-7.65
-12.83
-19.72
-26.87
-32.69
-36.02
-36.51
-34.92
-31.77
-27.43
-21.88
-14.46
-4.25
9.42
26.70
47.03
68.63
88.17
100.84
101.30
86.04
55.13
13.08
-32.34
-72.61
-101.49
-116.79
-118.84
-111.73
-99.38
-83.80
-65.31
-44.08
-21.43
-0.03
17.08
28.27
34.02
36.94
40.73
48.17
59.94
74.36
88.60
98.80
102.16
97.11
83.55
62.43
35.84
7.18
-19.13
-37.72
-45.45
-42.59
-33.10
-22.76
-16.78
-17.70
-24.97
-35.92
-47.67
-58.65
-68.30
-76.29
-81.61
-82.94
-78.73
-69.18
-56.20
-42.86
-31.88
-24.49
-19.82
-15.52
-9.25
0.04
11.32
21.99
28.99
30.47
26.50
19.16
11.86
8.29
11.23
21.51
37.24
53.52
63.61
60.98
42.24
9.93
-27.59
-58.51
-72.38
-64.33
-37.13
0.31
36.88
63.70
77.15
78.52
72.05
62.17
51.80
42.12
33.12
24.23
14.92
5.96
-0.91
-3.10
1.93
15.24
35.78
60.95
87.52
110.72
128.17
139.72
147.22
153.20
159.63
167.04
174.31
178.09
172.93
153.33
115.54
59.62
-10.34
-87.32
-163.54
-230.02
-277.45
-300.29
-298.53
-276.82
-241.27
-197.65
-151.06
-106.38
-67.27
-36.16
-13.86
0.87
10.57
18.30
26.17
35.63
46.15
57.15
67.20
73.86
74.42
67.15
52.80
34.86
18.78
8.79
8.31
16.45
28.31
38.01
41.17
36.61
23.13
-1.24
-39.29
-90.12
-147.23
-198.53
-229.57
-229.24
-194.44
-131.98
-51.59
26.72
84.02
110.50
107.88
85.74
54.91
22.78
-7.91
-37.65
-68.27
-99.41
-128.91
-154.59
-174.31
-186.82
-191.69
-188.53
-176.88
-157.53
-132.77
-107.70
-89.51
-84.64
-95.26
-116.85
-139.15
-150.71
-142.86
-113.66
-69.19
-20.61
20.97
48.71
61.57
62.71
56.41
45.73
32.49
18.41
6.04
-0.88
1.11
13.70
36.03
65.16
97.36
129.68
160.43
188.73
213.95
234.80
249.67
257.45
258.17
253.17
244.25
232.94
220.21
206.91
194.29
184.16
178.22
177.02
179.47
183.07
185.26
184.72
182.09
179.25
178.10
179.56
182.91
186.43
188.19
187.00
182.57
175.50
166.65
156.59
145.49
133.03
118.80
102.57
84.62
65.71
47.09
30.06
15.52
3.75
-5.67
-13.70
-21.35
-29.26
-37.59
-45.98
-53.85
-60.71
-66.36
-71.00
-75.05
-78.98
-83.05
-87.31
-91.56
-95.50
-98.78
-101.04
-102.05
-101.58
-99.56
-96.09
-91.44
-86.07
-80.52
-75.24
-70.55
-66.72
-63.90
-62.23
-61.78
-62.52
-64.13
-66.08
-67.78
-68.70
-68.57
-67.44
-65.76
-64.20
-63.56
-64.47
-67.27
-71.85
-77.75
-84.21
-90.36
-95.40
-98.61
-99.37
-97.33
-92.50
-85.40
-77.08
-68.69
-61.14
-54.67
-48.73
-42.29
-34.43
-24.84
-14.08
-3.35
6.01
13.01
17.35
19.42
20.04
20.15
20.47
21.40
23.05
25.32
28.00
31.02
34.41
38.21
42.34
46.46
49.92
51.75
50.92
46.51
38.15
26.25
12.28
-1.51
-12.51
-18.65
-19.04
-14.38
-6.70
1.39
7.51
10.05
8.50
3.13
-5.21
-15.17
-25.03
-32.95
-37.58
-38.98
-39.15
-41.61
-50.24
-67.46
-92.89
-123.13
-152.58
-175.02
-185.26
-180.27
-159.78
-126.46
-85.61
-44.24
-9.72
12.39
20.21
16.32
6.88
-0.70
-0.50
9.86
29.17
53.59
78.70
101.09
119.03
132.07
140.30
143.43
140.42
130.37
112.66
87.76
57.52
24.76
-7.26
-35.62
-58.13
-73.98
-82.06
-81.98
-73.51
-56.59
-31.85
-0.73
34.16
69.24
98.92
119.35
126.58
118.52
95.75
61.11
18.82
-26.99
-73.57
-122.55
-174.43
-231.49
-293.85
-357.67
-415.22
-456.83
-474.08
-462.79
-427.96
-376.31
-318.83
-264.65
-218.02
-178.12
-141.05
-102.73
-49.78
-1.15
37.33
56.21
48.33
11.77
-49.40
-126.47
-208.66
-274.84
-309.25
-300.13
-249.49
-169.54
-76.11
17.92
104.85
180.91
244.24
291.03
321.04
334.52
334.47
326.17
315.57
307.41
304.16
305.87
309.83
312.77
310.39
299.90
280.40
252.23
215.88
171.80
120.11
64.05
10.16
-33.98
-61.59
-69.60
-60.56
-42.21
-24.27
-14.34
-15.63
-26.42
-42.19
-58.92
-73.83
-85.75
-93.93
-97.03
-92.34
-77.08
-50.12
-12.57
32.58
80.39
126.33
166.63
197.61
215.27
215.94
197.83
162.85
117.15
69.63
28.85
0.03
-16.09
-22.16
-22.00
-18.49
-13.22
-7.07
-1.10
3.12
4.05
1.38
-3.38
-7.47
-8.01
-3.24
6.39
18.84
31.34
41.64
48.76
53.47
56.50
58.63
59.58
58.01
51.97
39.59
19.67
-8.15
-42.10
-78.77
-112.50
-136.47
-144.62
-134.20
-107.66
-72.21
-37.27
-10.97
2.64
4.71
-0.39
-7.92
-14.95
-21.39
-28.78
-38.32
-49.77
-61.70
-71.36
-76.34
-75.24
-67.61
-53.70
-33.59
-7.37
24.03
57.23
86.87
106.52
111.24
99.93
76.33
47.84
22.46
5.46
-1.99
-2.17
1.10
4.82
7.80
10.23
12.64
14.94
16.21
15.72
13.52
10.50
8.00
7.17
8.40
11.10
14.08
16.08
16.42
15.22
13.34
12.07
12.56
15.46
20.78
27.88
35.81
43.79
51.24
57.74
63.01
66.41
67.06
64.10
56.52
43.63
25.48
2.92
-22.36
-48.02
-71.51
-90.48
-103.23
-109.13
-108.64
-103.12
-94.48
-84.60
-74.72
-65.26
-55.91
-46.04
-35.36
-24.21
-13.57
-4.77
1.21
4.13
4.65
4.08
3.66
3.95
4.73
5.26
4.47
1.88
-2.56
-8.82
-16.55
-25.04
-32.62
-36.49
-33.22
-21.16
-1.17
23.06
46.28
64.11
74.22
77.20
75.75
73.23
70.91
68.94
67.41
67.68
72.75
85.57
107.52
136.89
168.71
194.07
204.53
195.98
166.50
121.23
68.87
18.36
-24.34
-57.61
-85.85
-114.62
-147.09
-182.67
-218.37
-251.41
-280.45
-305.66
-313.49
-295.47
-252.54
-194.50
-132.16
-72.18
-16.97
33.06
77.58
116.56
147.94
170.49
184.92
195.29
203.79
210.70
214.88
214.31
207.18
190.62
163.04
123.97
79.22
34.96
-4.31
-36.10
-59.62
-75.21
-85.03
-91.35
-95.44
-97.32
-96.95
-94.52
-90.32
-84.80
-78.60
-72.96
-69.27
-67.88
-68.20
-69.21
-70.26
-70.73
-70.51
-70.23
-71.03
-74.40
-80.76
-91.27
-102.38
-110.83
-113.60
-108.54
-95.07
-74.18
-48.37
-20.58
5.95
28.13
42.95
49.12
47.85
42.94
40.89
45.34
56.85
72.05
85.36
91.46
88.27
77.58
63.63
50.71
40.69
33.31
27.10
21.01
15.14
10.63
8.46
8.60
9.99
10.85
9.64
5.92
0.49
-5.22
-9.76
-12.32
-13.06
-12.89
-13.11
-14.74
-18.09
-22.67
-27.62
-32.08
-35.65
-38.52
-41.35
-44.84
-49.57
-55.52
-62.17
-68.56
-73.61
-76.45
-76.51
-74.06
-68.84
-61.00
-50.84
-38.84
-25.63
-11.94
1.34
13.39
23.50
31.27
36.46
39.16
39.72
38.59
36.33
33.45
30.40
27.48
24.96
22.89
21.21
19.77
18.33
16.66
14.56
11.86
8.50
4.60
0.27
-4.29
-8.98
-13.61
-18.08
-22.39
-26.63
-30.98
-35.45
-40.15
-45.18
-50.62
-56.46
-62.62
-69.04
-75.61
-82.28
-88.78
-94.97
-100.82
-106.38
-111.80
-117.23
-122.92
-129.00
-135.67
-142.68
-149.77
-156.68
-163.10
-168.62
-172.74
-174.82
-173.92
-171.61
-168.33
-164.37
-159.94
-155.23
-150.38
-145.60
-141.17
-137.43
-134.67
-132.64
-130.98
-129.24
-126.71
-122.48
-115.51
-104.90
-90.10
-71.06
-48.01
-21.78
6.18
34.10
60.11
82.39
99.45
110.24
114.35
112.22
104.94
94.10
81.54
69.18
58.73
51.54
48.25
48.61
51.68
55.83
59.15
59.70
55.88
46.67
31.85
11.99
-11.67
-37.43
-63.25
-86.69
-105.04
-115.48
-115.47
-103.07
-77.54
-39.62
8.45
63.20
120.65
176.91
228.73
273.77
310.72
339.10
358.94
370.75
375.36
374.07
368.69
361.40
354.65
350.80
351.91
359.39
373.55
393.01
414.32
432.44
441.82
438.30
420.24
389.15
348.93
304.48
260.15
218.91
182.51
152.01
128.33
112.00
102.64
98.52
96.84
94.54
89.61
82.09
73.86
67.78
65.93
68.21
71.74
71.75
63.30
43.42
12.72
-24.47
-61.39
-91.10
-108.83
-113.51
-108.01
-98.09
-90.76
-92.60
-107.84
-136.75
-174.69
-213.07
-242.05
-254.54
-249.42
-232.68
-215.19
-207.88
-216.29
-237.28
-259.71
-268.79
-252.49
-206.92
-138.51
-61.97
4.77
46.78
56.99
37.85
-0.48
-44.18
-80.51
-101.16
-103.36
-89.26
-64.17
-34.59
-6.51
15.63
29.51
34.87
33.32
27.64
20.87
15.40
12.29
11.01
9.76
6.16
-1.90
-15.45
-33.92
-55.11
-75.70
-92.17
-101.80
-103.36
-97.45
-86.33
-73.19
-61.05
-51.94
-46.23
-42.69
-39.18
-33.49
-24.45
-12.33
1.23
13.99
23.99
30.47
34.05
36.36
39.18
43.49
49.10
54.99
59.90
63.19
64.95
65.80
66.26
66.35
65.67
63.78
60.69
56.93
53.34
50.49
48.49
46.90
45.19
43.05
40.44
37.47
33.94
29.37
23.22
15.26
5.90
-3.74
-12.36
-18.93
-23.18
-25.67
-27.37
-29.05
-30.83
-31.99
-31.38
-27.85
-20.64
-9.55
5.11
22.56
41.61
60.60
77.53
90.44
97.92
99.47
95.72
87.93
77.58
65.86
53.53
41.01
28.66
16.90
6.05
-3.61
-12.07
-19.42
-25.66
-30.65
-34.07
-35.61
-35.20
-33.03
-29.62
-25.62
-21.65
-18.07
-14.95
-12.00
-8.69
-4.48
1.01
7.83
15.61
23.69
31.42
38.34
44.36
49.64
54.24
57.76
59.36
57.86
52.18
41.74
26.42
6.42
-18.07
-47.02
-80.30
-117.30
-156.26
-194.33
-228.09
-254.33
-270.85
-276.69
-271.82
-256.54
-231.15
-196.24
-153.38
-105.69
-57.61
-13.57
23.47
52.85
75.50
92.32
102.53
103.56
92.59
68.98
35.98
0.46
-29.43
-47.36
-50.87
-41.49
-23.01
0.69
27.00
54.36
81.55
106.92
128.29
143.83
152.89
156.33
156.08
154.19
152.07
150.22
148.49
146.46
143.85
140.66
137.09
133.38
129.66
126.05
122.79
120.25
118.50
117.31
116.15
114.43
111.72
107.87
103.06
97.90
93.30
89.82
87.64
86.64
86.64
87.43
88.50
88.61
85.67
76.75
58.29
27.23
-17.66
-74.85
-140.23
-208.30
-273.53
-331.29
-375.53
-400.86
-404.58
-387.94
-355.46
-313.26
-267.46
-222.96
-183.30
-150.28
-124.38
-104.84
-90.28
-78.95
-69.53
-61.67
-55.46
-51.45
-49.85
-50.16
-50.90
-50.68
-47.93
-41.97
-33.10
-21.95
-10.15
0.26
7.03
9.31
6.52
0.48
-4.99
-5.15
4.08
22.87
47.36
71.39
88.94
96.63
94.90
86.41
71.42
52.77
31.00
5.23
-24.63
-57.41
-90.54
-120.82
-146.31
-167.28
-183.69
-195.96
-203.46
-203.75
-194.48
-174.23
-143.50
-105.20
-64.41
-25.21
8.66
35.12
55.11
70.28
81.54
88.20
87.63
75.46
50.67
13.97
-31.63
-78.76
-119.19
-148.48
-162.59
-159.50
-141.04
-107.67
-61.27
-4.86
61.92
141.08
234.73
343.40
463.99
586.74
702.09
799.63
848.66
828.57
736.86
590.98
419.43
265.84
137.67
33.25
-51.03
-119.35
-174.90
-219.65
-257.29
-292.24
-325.39
-355.52
-374.93
-377.54
-363.69
-336.88
-302.89
-266.96
-232.57
-200.82
-174.20
-152.53
-135.99
-125.04
-118.18
-112.50
-104.97
-94.41
-81.06
-66.96
-51.21
-32.14
-8.30
20.73
53.41
86.31
114.22
133.08
140.90
139.79
133.93
127.57
123.61
119.84
116.77
113.79
110.21
105.82
100.91
95.55
88.99
79.98
67.50
52.12
35.01
18.57
5.16
-4.04
-9.27
-12.11
-15.87
-24.50
-41.41
-69.22
-107.50
-152.14
-195.76
-229.70
-244.08
-236.65
-211.13
-174.73
-135.24
-98.08
-65.39
-37.18
-13.02
6.66
20.18
26.74
27.28
24.13
20.28
18.32
19.45
23.29
28.33
32.27
33.90
33.33
31.82
31.14
32.70
37.20
44.23
52.55
60.47
66.69
70.55
72.01
71.57
69.58
66.31
61.82
56.10
49.23
41.62
34.02
27.25
22.11
19.02
17.99
18.63
20.31
22.38
24.25
25.51
25.96
25.65
24.76
23.52
22.14
20.80
19.82
19.36
19.30
19.65
20.38
21.55
23.31
25.86
29.46
34.40
40.97
48.87
57.92
67.86
78.44
89.33
100.25
110.93
121.20
131.10
139.95
147.42
153.27
157.43
159.69
159.79
157.02
149.96
142.05
134.26
127.15
120.95
115.82
111.73
108.66
106.50
105.17
104.64
104.01
102.76
100.40
96.71
91.59
85.14
77.61
69.40
61.05
52.49
43.92
35.58
27.74
20.66
14.47
9.08
4.17
-0.73
-6.50
-13.77
-22.71
-33.07
-44.13
-55.06
-65.16
-74.27
-82.61
-90.98
-100.07
-110.11
-120.70
-130.89
-139.63
-146.17
-150.68
-154.09
-158.00
-163.89
-172.55
-183.71
-196.27
-208.86
-220.45
-230.90
-240.96
-252.03
-265.82
-284.01
-307.93
-337.72
-371.49
-404.71
-430.70
-442.39
-434.76
-406.97
-362.77
-309.19
-253.77
-202.03
-156.32
-116.37
-80.74
-48.38
-19.06
7.05
29.94
50.30
69.22
87.67
105.96
123.69
139.76
152.87
162.02
166.81
167.78
166.29
163.91
161.73
159.51
155.74
148.28
135.63
117.96
97.41
77.42
61.31
51.15
47.03
47.46
50.27
53.49
55.71
56.06
53.90
48.74
40.51
29.73
17.59
5.67
-4.64
-12.55
-17.80
-20.43
-20.49
-17.89
-12.74
-5.75
1.76
8.29
12.74
15.06
16.18
17.38
19.61
22.95
26.72
29.96
32.00
32.54
31.83
30.13
27.67
24.56
20.79
16.46
11.69
6.74
1.90
-2.15
-4.71
-5.22
-3.64
-0.93
1.23
0.62
-3.27
-10.07
-17.79
-23.96
-26.54
-24.97
-20.36
-14.90
-11.22
-9.95
-10.59
-11.11
-8.93
-1.97
10.72
28.81
51.05
74.60
98.32
119.51
134.97
141.46
136.94
122.08
100.87
79.87
63.05
57.52
63.02
75.30
88.18
96.23
96.52
88.23
71.03
38.14
-5.98
-61.94
-126.60
-192.10
-247.61
-283.36
-295.26
-287.39
-279.74
-276.07
-286.97
-315.20
-354.66
-393.67
-419.98
-425.73
-409.83
-388.60
-357.04
-323.39
-294.87
-277.68
-277.67
-299.71
-346.01
-339.91
-365.62
-396.83
-422.59
-436.20
-436.45
-426.92
-412.43
-396.89
-380.93
-373.21
-356.05
-325.22
-277.29
-209.29
-120.08
-11.69
108.07
225.39
314.66
371.24
387.52
368.22
330.23
296.03
284.44
303.21
347.16
396.87
442.39
469.39
470.14
444.41
397.57
337.59
273.37
214.20
166.40
149.72
170.12
216.06
264.35
295.76
303.28
290.52
265.09
233.77
202.67
172.66
143.95
118.11
97.79
84.38
76.77
72.07
67.26
60.30
49.32
34.57
18.30
3.69
-7.28
-14.88
-20.89
-27.57
-36.62
-49.25
-65.23
-82.56
-98.24
-109.82
-117.18
-120.20
-119.60
-116.35
-111.65
-106.31
-100.54
-93.86
-86.13
-77.84
-69.78
-63.06
-58.53
-56.82
-58.17
-62.49
-68.91
-76.76
-85.70
-95.49
-106.15
-117.66
-129.87
-142.65
-155.89
-168.88
-181.00
-191.72
-200.52
-206.89
-210.25
-209.63
-203.54
-194.39
-182.87
-169.31
-153.86
-136.47
-117.12
-95.81
-72.57
-47.61
-21.33
6.24
34.74
63.50
91.65
118.14
141.85
161.69
176.64
185.92
189.55
187.80
181.27
170.85
157.63
142.76
127.34
112.23
98.08
85.46
74.62
65.40
57.50
50.41
43.55
36.44
28.67
20.03
10.77
1.26
-8.01
-16.52
-23.83
-29.60
-33.65
-35.96
-36.62
-35.73
-33.52
-30.27
-26.35
-22.20
-18.37
-15.32
-13.42
-12.71
-12.92
-13.61
-14.15
-14.09
-13.21
-11.64
-9.64
-7.50
-5.23
-2.36
1.86
8.22
17.15
28.38
41.00
53.69
65.18
74.70
82.30
88.67
94.80
101.32
108.10
114.40
119.10
121.40
121.28
119.81
118.85
120.78
128.07
142.79
165.87
196.34
230.56
262.31
284.09
289.58
276.16
246.29
206.87
166.72
133.31
110.33
97.25
90.70
86.67
82.25
76.13
68.01
57.87
45.68
31.80
17.61
5.37
-2.32
-3.67
1.50
11.81
24.93
38.49
50.76
61.02
69.26
75.58
79.84
81.41
79.33
72.70
61.29
45.95
28.82
12.81
0.73
-5.72
-6.66
-3.88
0.04
2.87
3.46
2.00
-0.45
-2.57
-2.99
-0.67
5.03
14.09
25.43
36.91
45.82
50.05
49.27
45.39
41.84
41.84
46.57
54.56
62.47
66.90
65.94
59.80
50.20
39.41
29.12
20.17
12.83
7.37
4.36
4.45
7.84
13.95
21.73
29.68
36.24
40.20
40.55
36.30
26.19
9.16
-14.87
-42.80
-69.72
-90.20
-100.22
-98.80
-87.86
-70.76
-50.06
-25.86
6.30
50.93
109.68
179.93
255.84
331.42
402.90
469.07
529.53
585.98
636.48
675.64
696.94
696.48
675.69
641.03
601.05
562.82
534.49
519.25
515.39
517.45
518.39
512.32
496.04
469.34
403.68
285.38
116.55
-83.01
-284.08
-461.02
-599.86
-698.04
-760.22
-794.09
-802.99
-790.66
-761.89
-723.13
-681.21
-641.40
-606.36
-576.44
-550.78
-524.66
-494.77
-460.28
-423.11
-386.59
-353.03
-323.00
-295.44
-268.89
-240.09
-207.54
-171.69
-135.61
-103.47
-79.09
-65.11
-62.46
-69.88
-82.42
-93.77
-96.66
-87.26
-66.75
-40.69
-16.74
-1.43
2.33
-3.71
-14.94
-26.44
-35.23
-40.46
-41.99
-39.35
-31.57
-17.88
1.32
24.24
47.93
69.08
85.70
98.14
108.22
117.62
126.22
131.21
127.84
111.27
79.00
33.37
-18.48
-67.13
-104.40
-126.11
-132.77
-128.52
-119.65
-112.71
-111.85
-117.45
-126.23
-132.23
-128.35
-108.71
-71.04
-16.84
43.88
96.44
126.62
125.40
91.70
32.43
-40.30
-108.63
-156.18
-175.25
-168.19
-143.20
-108.80
-71.20
-34.17
-0.32
28.58
50.76
64.91
71.51
72.97
72.72
73.24
75.67
79.17
82.47
83.99
82.38
77.37
69.78
60.89
51.45
41.16
28.31
10.48
-14.23
-45.46
-79.21
-108.25
-124.24
-121.47
-99.66
-64.88
-26.96
4.55
24.14
32.01
32.53
31.48
33.12
38.80
47.33
56.14
62.74
65.63
63.84
56.74
44.24
26.87
5.96
-15.86
-34.96
-47.46
-50.93
-45.91
-36.54
-28.97
-28.06
-35.93
-49.51
-62.03
-66.79
-60.64
-45.05
-25.06
-6.17
8.16
17.29
22.78
26.43
28.98
29.99
29.00
26.12
22.45
19.64
18.99
21.13
25.79
31.98
38.45
44.47
49.73
54.23
58.13
61.10
61.95
59.09
51.05
37.31
18.61
-3.17
-25.25
-44.54
-58.38
-64.81
-62.11
-50.80
-32.14
-7.89
19.42
46.55
70.59
88.18
96.61
94.55
81.84
59.92
31.55
-0.06
-31.92
-61.36
-86.51
-105.62
-117.08
-119.81
-113.10
-97.60
-75.21
-49.44
-24.55
-4.81
6.60
7.81
-1.78
-20.55
-45.78
-72.23
-93.06
-101.53
-94.15
-72.00
-40.95
-9.30
15.48
29.54
33.52
30.98
26.31
21.70
17.30
12.09
5.41
-2.48
-10.71
-18.39
-25.71
-33.48
-42.88
-54.27
-66.80
-77.60
-83.26
-80.72
-68.14
-45.63
-14.85
20.81
57.44
91.44
119.93
140.79
152.61
154.64
144.98
125.22
97.44
64.23
28.79
-5.56
-36.02
-60.75
-79.17
-91.95
-100.08
-104.98
-107.84
-108.94
-107.82
-103.54
-95.20
-82.47
-65.86
-46.27
-25.46
-5.34
12.41
26.47
36.21
41.18
40.80
34.56
22.41
4.93
-16.33
-38.78
-59.37
-74.93
-83.63
-85.82
-83.71
-80.16
-77.57
-76.61
-75.83
-72.31
-62.36
-44.28
-19.46
7.96
32.61
50.05
58.78
61.52
59.19
56.85
59.94
72.14
93.97
121.80
148.10
163.10
158.21
129.75
82.35
27.94
-17.59
-39.80
-31.51
3.72
52.59
97.38
123.03
123.56
103.24
73.67
48.30
36.47
40.61
57.04
79.13
101.04
119.33
132.17
137.53
132.78
114.18
78.82
26.79
-37.90
-107.93
-174.57
-229.66
-267.37
-284.07
-280.13
-259.74
-229.30
-195.02
-160.55
-126.17
-89.55
-47.69
2.40
59.92
120.45
178.18
228.79
271.52
308.09
341.06
372.27
403.70
434.18
459.24
472.18
466.09
436.74
383.40
309.52
210.31
92.56
-28.95
-137.31
-221.29
-278.59
-311.92
-326.04
-325.33
-313.61
-292.99
-267.56
-242.77
-223.44
-210.99
-201.01
-185.56
-157.37
-113.02
-53.51
13.57
76.48
123.84
143.10
134.38
105.92
68.41
30.29
-3.59
-32.83
-59.66
-86.27
-113.37
-138.96
-160.80
-177.97
-190.99
-201.10
-209.36
-216.24
-221.17
-222.28
-215.94
-198.48
-168.28
-126.30
-76.31
-23.33
27.72
72.79
109.70
138.63
161.66
180.50
196.07
208.95
219.12
226.15
229.07
226.72
212.03
181.75
135.77
78.32
18.92
-30.84
-61.48
-69.51
-58.95
-39.29
-20.21
-8.12
-4.14
-4.06
-3.23
-0.27
2.13
-0.27
-9.43
-21.79
-29.42
-27.27
-12.22
12.42
36.89
49.58
42.77
16.73
-20.85
-56.12
-81.53
-93.95
-94.67
-87.40
-75.59
-61.51
-45.99
-30.91
-18.64
-12.38
-13.28
-19.69
-26.98
-28.55
-18.38
6.55
45.19
93.20
143.83
190.75
228.52
252.58
259.03
244.66
208.06
151.44
82.01
10.87
-49.99
-92.33
-115.60
-127.11
-138.63
-160.57
-196.52
-241.69
-285.12
-314.67
-322.12
-305.73
-269.23
-218.75
-160.29
-98.23
-35.91
23.36
76.32
120.40
154.23
178.22
194.38
204.84
211.02
213.34
211.69
206.67
200.29
195.17
193.12
194.69
198.91
204.27
209.63
214.28
217.83
219.81
218.56
210.94
192.98
160.89
112.45
47.94
-29.65
-115.26
-198.89
-268.59
-314.60
-333.46
-328.76
-307.89
-278.11
-244.31
-208.91
-173.21
-139.30
-109.95
-87.50
-72.84
-64.84
-60.65
-57.25
-52.26
-44.57
-34.98
-25.34
-17.63
-12.99
-11.16
-10.84
-10.45
-8.77
-5.33
-0.63
4.19
7.96
10.00
10.44
9.99
9.46
9.51
10.40
11.94
13.54
14.67
15.02
14.71
14.23
14.07
14.75
16.71
20.26
25.40
31.88
39.24
46.88
54.14
59.97
63.38
63.52
59.83
52.21
41.00
26.99
11.43
-4.13
-18.23
-29.62
-37.27
-40.63
-39.62
-34.80
-27.12
-17.76
-7.72
2.04
10.57
17.45
22.53
26.13
28.23
28.78
27.72
25.16
21.26
15.85
9.32
2.08
-4.95
-11.63
-17.99
-24.14
-30.27
-36.55
-43.56
-51.06
-58.47
-64.48
-68.49
-69.84
-67.74
-61.30
-46.15
-23.72
4.03
32.79
62.43
91.51
117.93
139.37
154.00
160.28
156.72
143.29
120.15
90.59
58.11
26.14
-2.70
-26.41
-44.26
-56.76
-64.27
-67.27
-66.28
-62.65
-57.71
-52.66
-47.93
-44.15
-42.03
-41.59
-42.42
-44.04
-46.38
-49.18
-54.64
-60.79
-66.04
-69.13
-68.71
-63.67
-53.59
-38.81
-20.19
0.65
22.61
44.21
64.18
81.68
96.25
107.03
113.32
114.91
111.62
104.55
95.04
84.55
74.45
65.67
56.73
45.19
32.24
17.93
3.23
-10.36
-21.25
-28.10
-30.18
-30.32
-32.07
-38.45
-51.53
-70.55
-92.44
-113.17
-128.97
-137.12
-140.27
-142.57
-148.14
-160.18
-179.35
-204.68
-235.41
-271.15
-295.74
-297.82
-271.43
-219.78
-153.31
-83.64
-19.82
32.35
67.46
91.74
109.34
123.96
139.94
156.13
166.60
168.42
161.30
148.69
137.44
131.60
132.83
137.41
136.40
120.25
83.95
29.42
-34.54
-95.85
-146.28
-176.10
-181.20
-165.01
-135.82
-100.97
-63.57
-23.37
19.83
63.26
102.53
132.27
149.01
153.55
150.69
146.57
147.43
154.09
163.27
169.74
167.54
152.31
122.84
80.94
29.35
-25.22
-75.60
-114.43
-135.49
-136.09
-118.32
-88.66
-55.83
-27.61
-8.24
1.68
4.88
4.87
3.66
1.35
-2.69
-8.49
-14.51
-18.53
-19.29
-16.89
-12.85
-9.38
-8.46
-10.70
-15.35
-20.70
-24.84
-26.89
-27.01
-26.34
-26.44
-28.61
-33.30
-40.09
-47.84
-55.11
-60.89
-64.65
-66.42
-66.53
-65.84
-64.18
-61.25
-56.57
-49.57
-40.00
-28.03
-14.19
0.60
15.15
28.30
39.00
46.74
51.52
53.72
53.91
52.66
50.28
46.74
41.88
35.65
28.67
22.26
18.17
18.18
23.64
34.98
51.32
70.91
91.39
110.73
127.63
141.34
151.94
160.53
169.23
179.63
191.89
203.53
209.56
203.71
180.44
138.34
81.81
20.69
-34.47
-75.93
-101.16
-112.36
-113.07
-107.89
-99.98
-90.10
-76.63
-59.45
-40.61
-23.99
-13.48
-11.82
-21.46
-43.39
-77.16
-119.53
-167.23
-216.01
-260.53
-294.90
-309.09
-298.82
-268.31
-236.39
-212.37
-199.23
-193.56
-192.09
-191.36
-188.62
-182.66
-172.33
-155.58
-128.60
-89.79
-39.98
18.02
80.38
141.99
195.80
234.38
252.15
248.49
226.50
192.73
155.17
120.24
90.21
62.72
33.95
2.63
-26.93
-47.41
-51.84
-36.90
-5.24
35.23
74.23
103.26
118.37
121.04
115.40
105.66
95.67
87.61
82.26
79.22
77.65
76.93
77.09
78.55
81.70
88.57
101.61
123.15
154.75
196.59
247.11
302.32
355.70
388.01
382.23
330.57
240.77
133.51
32.01
-47.90
-101.65
-133.11
-149.72
-156.40
-155.06
-146.13
-131.05
-113.32
-97.33
-86.51
-81.44
-80.00
-77.36
-68.64
-51.42
-26.95
0.29
25.58
43.87
52.53
51.51
43.18
30.48
15.36
-1.93
-22.94
-47.81
-76.73
-109.41
-144.53
-178.74
-206.65
-221.62
-217.85
-192.98
-150.17
-98.13
-48.30
-10.46
10.52
15.51
9.52
-1.56
-13.43
-24.10
-33.04
-39.88
-44.69
-47.49
-50.27
-56.54
-69.19
-88.17
-109.32
-124.36
-126.75
-113.57
-86.88
-52.91
-18.80
10.49
33.26
50.66
64.77
76.70
86.62
93.92
97.66
97.09
92.83
84.93
73.46
58.10
38.43
14.50
-12.74
-41.13
-67.85
-89.46
-103.75
-109.75
-107.32
-96.57
-77.04
-48.44
-12.08
27.87
64.88
91.06
100.64
92.48
70.43
42.06
15.76
-2.12
-8.31
-2.01
15.04
40.24
70.70
102.80
132.48
155.64
168.98
166.83
150.42
123.62
91.35
58.60
28.88
3.89
-16.30
-32.69
-46.58
-58.37
-68.50
