1669966923.00
64.000000
-0.00
-0.00
-0.00
-0.00
-0.00
-0.00
-0.00
-0.00
-0.00
-0.00
0.00
0.01
0.01
-0.00
-0.03
-0.05
-0.05
0.00
0.13
0.36
0.66
1.01
1.37
1.72
2.06
2.40
2.79
3.24
3.80
4.42
5.06
5.66
6.20
6.68
7.15
7.68
8.31
9.14
10.09
11.04
11.88
12.56
13.14
13.76
14.65
15.96
17.91
20.32
22.90
25.38
27.58
29.57
31.68
34.32
37.81
42.54
48.15
54.10
59.83
64.97
69.58
74.14
79.34
85.71
93.76
103.00
112.62
121.73
129.77
136.75
143.30
150.75
157.77
166.64
177.95
191.79
206.97
220.57
228.25
225.36
208.53
176.87
132.76
80.05
23.07
-34.94
-92.44
-149.16
-205.23
-260.37
-313.74
-363.87
-409.82
-450.88
-486.45
-515.67
-537.13
-549.08
-549.78
-538.14
-513.93
-478.35
-433.50
-382.01
-326.52
-269.29
-212.03
-155.99
-102.23
-51.59
-5.05
36.52
72.45
102.48
126.75
145.76
160.23
170.86
178.26
182.85
184.90
184.64
182.33
178.33
173.04
166.86
160.16
153.17
146.03
138.83
131.60
124.40
117.30
110.37
103.68
97.28
91.22
85.49
80.13
75.13
70.51
66.27
62.42
58.96
55.89
53.21
50.90
48.95
47.32
45.98
44.85
43.82
42.76
41.49
39.83
37.58
34.58
30.76
26.08
20.63
14.49
7.88
1.06
-5.67
-12.04
-17.76
-22.56
-26.23
-28.66
-29.86
-29.98
-29.36
-28.44
-27.77
-27.83
-28.96
-31.29
-34.75
-39.11
-43.98
-48.90
-53.35
-56.85
-58.88
-58.80
-55.98
-49.83
-40.02
-26.59
-10.05
9.25
29.69
49.42
67.01
81.61
92.84
100.65
105.04
105.84
102.56
94.73
81.83
63.91
41.77
16.93
-8.85
-34.13
-58.25
-81.37
-102.97
-123.86
-144.26
-163.36
-179.53
-191.12
-196.94
-196.92
-193.57
-187.95
-181.63
-176.07
-172.58
-171.93
-173.52
-174.70
-170.84
-156.68
-128.42
-86.68
-36.63
13.38
54.99
82.98
96.62
98.88
94.06
85.88
75.81
63.92
50.12
35.13
20.77
8.79
-0.15
-6.70
-11.91
-17.27
-23.46
-30.17
-36.48
-40.91
-42.60
-41.66
-38.96
-35.13
-30.52
-24.68
-16.57
-4.93
12.00
35.50
66.48
103.29
145.27
192.24
244.41
301.82
358.52
408.18
444.39
462.35
460.27
440.20
406.78
365.57
321.73
279.22
241.47
210.34
185.50
163.85
140.11
108.22
64.15
8.20
-54.50
-115.16
-165.37
-200.09
-219.00
-225.12
-222.71
-215.23
-204.78
-192.82
-180.72
-170.42
-163.53
-160.38
-159.36
-157.87
-153.39
-144.79
-133.01
-120.24
-109.26
-102.38
-100.85
-104.21
-109.90
-113.24
-108.53
-91.07
-59.38
-16.75
29.55
70.87
100.68
117.13
123.19
124.42
125.69
128.75
131.96
132.05
126.40
114.49
97.89
79.03
59.89
41.39
23.86
7.18
-7.90
-19.96
-27.52
-29.90
-27.69
-22.66
-17.13
-13.15
-11.94
-13.44
-16.87
-20.97
-24.59
-27.10
-28.50
-29.28
-30.11
-31.60
-33.84
-36.65
-39.41
-41.49
-42.43
-42.08
-40.43
-37.61
-33.69
-28.66
-22.58
-15.44
-7.39
1.24
9.81
17.60
23.95
28.37
30.68
30.69
28.57
24.54
18.78
11.55
3.10
-6.15
-15.68
-23.48
-29.70
-34.58
-38.44
-41.79
-45.14
-48.81
-52.67
-56.24
-58.82
-59.93
-59.50
-57.97
-56.16
-54.95
-54.83
-55.52
-56.14
-56.79
-55.87
-53.21
-49.41
-45.81
-43.68
-43.60
-45.46
-48.81
-53.07
-57.22
-59.47
-56.92
-46.68
-27.21
0.11
30.76
58.63
78.62
89.27
92.25
92.23
93.49
97.93
104.44
110.30
113.03
111.63
106.40
98.10
86.77
71.81
53.13
31.27
7.30
-17.29
-41.24
-63.83
-85.18
-104.60
-124.10
-145.31
-168.07
-189.42
-203.80
-205.11
-189.61
-158.40
-117.62
-76.78
-44.43
-24.98
-17.45
-16.81
-16.95
-13.59
-5.04
8.21
24.30
41.84
60.38
79.81
100.00
120.42
140.22
157.12
171.31
183.76
195.83
207.77
217.51
220.57
211.81
188.17
151.11
107.09
64.98
32.75
14.10
7.68
8.56
11.16
11.86
9.51
4.85
-1.12
-8.46
-17.95
-30.18
-44.95
-61.13
-76.84
-90.13
-99.46
-103.86
-103.05
-97.58
-88.31
-76.40
-63.16
-49.65
-36.61
-25.60
-17.82
-13.63
-13.67
-18.43
-28.15
-42.75
-61.46
-83.78
-109.25
-137.09
-164.26
-187.75
-202.80
-204.08
-190.15
-160.47
-119.61
-75.37
-35.61
-5.54
13.81
24.80
31.45
36.65
41.61
45.67
48.06
49.09
50.03
52.73
58.16
66.73
77.58
89.33
100.57
110.60
119.63
128.07
136.75
145.64
154.74
163.19
169.97
174.30
176.38
177.73
175.29
169.10
153.77
128.19
94.33
56.50
19.21
-14.28
-42.44
-65.16
-82.39
-94.68
-102.03
-105.02
-104.56
-101.76
-97.60
-92.74
-87.55
-81.85
-75.20
-66.97
-57.24
-46.72
-36.63
-28.27
-22.75
-20.77
-23.17
-29.61
-38.86
-49.68
-61.06
-72.25
-82.78
-92.29
-100.30
-106.20
-109.38
-109.37
-105.89
-99.24
-89.65
-77.73
-64.34
-50.30
-36.48
-23.61
-12.47
-3.37
3.44
7.75
9.28
7.74
3.29
-3.71
-12.64
-22.90
-33.16
-42.19
-48.95
-52.80
-54.92
-55.56
-54.55
-51.29
-45.05
-34.17
-17.21
6.81
38.10
76.31
121.07
171.95
228.49
283.23
328.72
358.47
369.26
361.62
338.99
306.14
267.47
226.67
186.93
152.33
126.23
109.84
100.52
91.67
75.01
43.82
-3.85
-64.18
-127.97
-184.11
-222.77
-237.68
-227.07
-193.62
-143.97
-87.51
-34.40
7.32
33.66
45.45
47.18
44.70
42.97
44.84
51.06
60.10
68.60
71.80
64.75
44.66
12.88
-24.73
-59.98
-85.51
-98.06
-99.08
-93.27
-85.67
-79.15
-73.81
-68.10
-60.71
-51.81
-43.19
-36.99
-34.58
-35.72
-38.60
-40.40
-38.74
-32.95
-24.30
-16.04
-11.67
-13.72
-22.74
-37.11
-53.91
-70.00
-82.67
-89.38
-88.87
-80.60
-65.23
-45.09
-23.37
-3.09
13.89
27.65
39.73
51.72
63.93
74.52
79.24
73.57
54.94
25.29
-8.25
-34.98
-44.76
-32.57
-1.63
36.70
68.07
81.02
72.38
47.79
18.09
-6.54
-21.16
-26.62
-27.94
-29.47
-32.62
-34.62
-32.18
-24.87
-16.02
-11.39
-16.40
-33.33
-59.50
-89.75
-116.93
-134.11
-136.51
-122.70
-94.92
-58.78
-22.15
9.62
33.37
49.85
62.92
77.53
97.03
120.57
143.65
159.12
160.74
145.76
117.18
82.45
50.57
28.44
18.22
17.02
18.97
19.02
14.51
5.97
-4.55
-15.69
-27.46
-40.30
-52.99
-61.76
-61.63
-49.79
-28.06
-3.10
16.26
23.32
16.73
0.93
-16.74
-30.06
-36.68
-38.08
-36.95
-35.02
-32.18
-27.59
-21.20
-14.45
-9.90
-9.30
-12.52
-16.62
-17.73
-12.88
-2.03
11.97
24.97
32.85
33.68
27.74
17.68
6.03
-5.42
-15.65
-23.65
-28.24
-29.68
-27.56
-27.33
-34.25
-49.38
-66.47
-74.53
-66.63
-40.75
-4.55
27.64
42.03
32.45
0.96
-43.93
-92.27
-136.77
-173.22
-199.86
-215.30
-217.47
-199.08
-160.18
-107.49
-51.59
-2.87
32.93
55.74
70.10
83.87
105.36
139.68
188.07
248.47
315.57
382.22
439.97
470.86
461.75
412.94
339.89
264.17
202.85
161.61
137.12
121.83
109.06
96.47
85.86
80.18
78.54
77.26
70.40
53.39
24.26
-14.77
-58.80
-102.93
-143.31
-181.29
-210.91
-228.42
-232.57
-225.22
-211.18
-193.30
-183.65
-179.66
-179.22
-181.95
-190.40
-208.15
-229.84
-254.86
-282.75
-311.94
-337.14
-352.75
-352.74
-333.98
-297.03
-245.87
-187.99
-129.76
-75.07
-24.70
19.46
54.25
75.38
80.33
74.94
67.32
67.13
80.72
107.91
142.09
175.21
201.38
219.00
229.66
234.92
235.17
230.36
220.12
205.56
188.07
170.04
153.94
141.10
130.69
119.52
105.02
84.67
57.75
25.20
-11.30
-50.96
-95.36
-139.06
-178.59
-210.43
-234.65
-253.26
-268.60
-281.00
-287.76
-283.66
-262.88
-230.66
-185.60
-130.64
-71.85
-16.11
31.75
69.99
99.27
121.60
138.00
148.57
149.95
140.09
119.52
91.69
61.29
31.77
4.79
-19.73
-41.21
-59.23
-72.39
-79.09
-79.25
-72.40
-59.06
-40.50
-17.96
8.60
39.44
75.52
115.07
156.14
196.92
234.73
265.17
282.09
279.45
253.74
206.89
146.63
84.74
32.56
-3.30
-22.48
-29.42
-30.12
-29.30
-28.86
-28.88
-28.65
-28.14
-28.24
-30.22
-34.54
-40.82
-47.88
-55.09
-63.24
-74.31
-90.91
-114.76
-145.06
-176.96
-202.58
-213.56
-204.20
-174.60
-130.59
-81.37
-35.48
1.74
30.32
53.76
73.57
92.35
110.50
126.78
139.99
150.33
157.68
161.35
158.93
147.48
126.31
98.53
71.07
51.98
48.41
58.43
75.99
92.72
101.55
99.62
88.19
70.96
49.23
27.27
6.18
-13.89
-32.75
-49.51
-62.75
-71.45
-75.46
-75.71
-73.29
-70.23
-67.83
-66.71
-66.85
-67.62
-68.09
-67.49
-65.54
-62.00
-57.82
-53.96
-51.19
-49.55
-48.33
-46.12
-41.12
-32.04
-18.09
0.51
23.31
49.43
77.02
101.85
119.09
124.03
114.26
91.58
61.57
31.80
8.63
-5.02
-10.16
-9.97
-7.64
-4.75
-1.31
2.83
6.81
8.55
5.95
-1.75
-13.09
-25.16
-35.01
-40.66
-42.32
-41.93
-42.38
-46.14
-54.69
-68.12
-85.05
-102.52
-116.24
-121.68
-114.74
-95.97
-69.47
-41.77
-19.53
-6.80
-3.87
-7.75
-14.27
-20.29
-24.94
-28.96
-33.22
-37.63
-40.84
-41.36
-38.29
-32.11
-24.34
-16.71
-10.33
-5.12
-0.01
6.49
15.37
26.89
40.22
53.03
63.98
72.17
77.51
80.61
82.49
83.93
85.48
86.90
87.52
86.76
84.31
80.40
75.68
71.88
68.95
66.95
65.35
63.25
59.89
54.81
48.15
40.62
33.29
26.90
21.96
18.20
14.94
11.41
7.14
2.30
-2.44
-6.02
-7.39
-5.55
-0.02
8.81
19.27
28.31
31.99
26.70
10.75
-14.63
-45.26
-75.68
-101.10
-118.73
-127.97
-129.12
-122.47
-108.10
-86.68
-60.37
-33.16
-9.88
5.49
11.00
7.00
-4.39
-19.78
-35.12
-46.15
-49.05
-41.60
-24.19
-0.16
24.93
44.09
51.74
45.95
28.95
6.09
-16.38
-33.42
-42.54
-44.16
-40.94
-36.57
-34.44
-36.59
-42.82
-50.65
-56.34
-56.37
-49.01
-34.94
-16.54
3.34
22.36
39.00
52.09
60.20
61.84
56.37
45.01
31.14
19.06
11.77
9.24
8.40
5.05
-3.20
-15.07
-25.79
-29.27
-21.43
-2.46
22.93
47.55
65.02
72.46
71.27
65.44
58.80
52.74
45.62
34.34
17.05
-4.73
-26.13
-41.01
-45.28
-38.43
-23.33
-4.49
13.83
28.57
38.06
41.51
38.86
30.38
18.05
6.52
2.75
13.78
43.88
92.36
152.93
215.00
265.23
292.22
290.72
263.26
218.16
165.70
114.27
68.39
28.77
-7.81
-45.01
-84.48
-125.32
-165.98
-205.86
-245.68
-286.21
-316.34
-324.36
-305.01
-263.24
-209.47
-153.35
-101.48
-58.03
-25.05
-2.29
11.06
17.21
19.53
21.81
25.67
30.60
33.79
31.93
22.75
4.28
-23.71
-58.68
-92.42
-116.41
-123.79
-112.03
-84.02
-47.14
-11.27
15.71
31.02
37.10
38.25
37.79
36.56
33.68
28.68
21.98
14.72
8.64
4.75
3.22
4.69
10.49
20.96
33.75
43.08
42.31
28.95
7.17
-13.09
-20.30
-7.21
25.23
68.40
110.25
136.78
141.41
126.97
102.27
76.02
53.28
34.96
19.94
7.40
-1.75
-4.49
0.27
10.85
22.38
28.52
25.25
14.21
3.04
1.97
19.84
55.15
95.58
124.04
128.41
108.00
73.42
39.88
18.64
13.01
17.78
24.92
28.36
27.39
24.42
22.12
21.13
19.07
12.83
-0.51
-19.84
-42.73
-65.66
-84.83
-97.08
-101.08
-101.25
-99.33
-97.68
-97.71
-99.52
-102.54
-105.00
-104.76
-100.28
-92.46
-83.11
-75.03
-70.54
-71.40
-80.14
-98.30
-125.93
-156.75
-184.95
-203.65
-207.03
-191.88
-151.32
-90.75
-25.13
29.32
64.02
79.65
83.07
81.01
77.14
72.01
63.59
51.40
37.76
26.39
19.69
18.01
19.48
21.14
20.35
14.92
5.09
-6.31
-15.40
-18.78
-14.78
-3.79
12.44
31.61
51.21
69.92
88.00
104.69
120.26
134.83
148.48
161.58
174.40
185.84
192.76
190.58
174.57
142.86
98.14
47.69
0.84
-34.75
-55.87
-63.70
-62.08
-54.92
-44.48
-31.91
-18.24
-5.36
4.32
8.64
7.10
0.84
-7.99
-17.43
-26.86
-36.55
-46.52
-55.49
-60.44
-57.04
-42.16
-16.28
15.53
44.90
63.20
65.63
52.56
28.68
0.74
-25.58
-47.12
-62.76
-72.20
-75.08
-71.29
-60.60
-46.46
-32.57
-21.36
-13.16
-6.27
1.63
11.63
22.44
31.60
36.10
33.85
24.14
7.85
-12.21
-31.38
-43.64
-42.42
-26.55
-1.23
23.35
35.68
27.78
-0.61
-41.84
-82.98
-110.75
-116.15
-96.84
-56.82
-3.94
53.55
109.65
161.07
205.74
241.01
262.41
264.99
246.65
211.06
168.14
131.18
111.09
111.71
128.53
151.42
170.03
178.18
175.48
165.71
153.26
140.45
126.49
108.70
84.80
54.86
21.53
-10.82
-38.21
-58.96
-74.50
-88.84
-106.43
-129.56
-156.53
-181.76
-198.06
-199.99
-186.76
-162.85
-136.37
-115.80
-106.92
-111.45
-127.38
-150.09
-173.76
-191.98
-197.99
-185.50
-150.20
-91.73
-15.16
69.20
148.23
209.31
244.10
250.71
233.44
200.47
160.70
120.58
82.73
46.90
12.50
-18.84
-42.86
-54.90
-53.58
-42.91
-31.43
-27.87
-36.18
-52.68
-67.55
-70.17
-55.09
-25.09
10.66
41.68
61.70
70.82
73.70
75.22
76.97
76.57
70.09
55.18
33.15
8.65
-12.85
-27.64
-35.22
-37.49
-37.07
-35.50
-32.95
-29.01
-24.06
-19.90
-19.35
-24.93
-37.44
-55.48
-76.11
-96.07
-113.11
-126.43
-136.60
-144.89
-152.57
-160.50
-168.93
-177.86
-186.69
-194.29
-198.64
-197.25
-188.03
-170.27
-145.30
-116.44
-88.08
-63.97
-46.15
-34.37
-26.64
-20.47
-14.00
-6.49
1.74
9.72
16.59
21.51
23.82
23.05
19.09
12.41
4.12
-4.37
-11.78
-17.24
-20.65
-22.47
-23.29
-23.63
-23.76
-23.88
-24.19
-24.90
-25.94
-27.13
-28.11
-28.56
-28.50
-28.20
-28.04
-28.24
-28.66
-28.80
-28.17
-26.40
-23.38
-19.27
-14.20
-8.28
-1.68
5.33
12.23
18.36
23.15
26.41
28.25
29.11
29.44
29.47
29.20
28.66
27.88
26.96
26.13
25.23
24.06
22.28
19.57
15.87
11.50
7.09
3.23
0.36
-1.71
-3.56
-6.05
-10.23
-16.69
-25.18
-34.59
-43.33
-49.93
-53.78
-54.99
-54.03
-51.91
-49.34
-46.32
-42.27
-36.82
-30.08
-23.34
-17.93
-14.49
-13.99
-16.82
-22.19
-28.40
-33.86
-37.41
-39.95
-42.80
-47.01
-55.10
-68.75
-86.80
-104.35
-114.10
-107.78
-81.43
-35.41
24.71
85.61
131.43
150.44
139.49
103.94
56.00
5.82
-38.87
-61.02
-51.69
-15.79
30.73
73.05
98.90
115.85
128.11
136.49
139.69
133.91
114.53
80.47
34.65
-19.02
-76.19
-138.69
-207.55
-269.37
-308.18
-312.84
-283.38
-230.08
-177.12
-129.54
-91.24
-63.17
-42.75
-26.89
-13.99
-1.80
12.56
31.42
57.83
89.85
125.37
162.67
198.66
230.37
257.02
280.88
306.46
339.19
379.09
422.42
461.27
484.29
480.94
446.70
385.76
309.95
234.83
171.75
126.30
96.85
76.56
58.24
38.33
17.60
-1.22
-16.11
-33.97
-58.86
-89.74
-121.00
-145.38
-158.13
-158.86
-151.22
-140.57
-131.87
-126.34
-123.66
-123.90
-127.85
-137.14
-153.55
-177.88
-208.66
-241.80
-270.80
-285.59
-279.32
-250.57
-203.88
-147.77
-91.37
-41.27
0.05
34.04
63.47
90.01
114.46
137.86
162.31
190.37
222.87
256.89
285.45
299.68
291.79
258.71
203.30
132.39
54.04
-24.56
-97.21
-157.73
-199.51
-217.53
-210.95
-184.91
-149.95
-117.95
-97.12
-88.69
-87.34
-84.76
-74.22
-53.46
-24.49
8.24
40.40
68.84
91.46
106.72
113.43
111.40
101.86
87.76
72.91
60.69
53.40
51.57
54.34
59.81
65.60
69.11
68.14
61.33
48.68
31.93
13.99
-1.65
-12.01
-15.56
-12.83
-6.30
0.40
3.44
0.38
-9.51
-24.80
-42.60
-59.31
-71.49
-76.48
-72.77
-60.70
-42.57
-22.54
-5.63
4.17
5.45
0.06
-7.77
-13.61
-15.10
-12.79
-9.42
-8.07
-10.06
-14.63
-19.62
-23.18
-25.08
-26.69
-29.71
-34.84
-41.13
-46.37
-48.56
-47.03
-42.72
-37.80
-34.43
-33.77
-35.71
-39.15
-42.39
-43.61
-41.14
-33.86
-21.58
-5.41
12.34
29.09
42.83
52.99
60.39
66.35
71.65
75.78
77.31
74.67
67.27
56.06
43.20
31.19
21.86
16.00
13.29
12.86
13.60
14.54
15.08
15.05
14.57
13.89
13.19
12.47
11.66
10.69
9.90
9.79
10.74
12.57
14.08
13.24
7.97
-2.99
-19.23
-38.48
-57.16
-71.72
-79.60
-80.05
-74.07
-63.69
-51.04
-37.83
-25.01
-13.17
-2.91
5.12
10.35
12.59
12.30
10.43
7.95
5.45
2.93
-0.04
-3.67
-7.86
-12.22
-16.29
-19.82
-22.82
-25.20
-26.94
-27.79
-27.76
-27.30
-27.41
-29.11
-32.85
-37.99
-42.95
-46.20
-47.12
-46.48
-46.26
-48.45
-54.05
-62.62
-72.72
-82.57
-91.02
-97.08
-99.67
-97.38
-89.24
-75.87
-60.24
-46.93
-39.74
-39.43
-42.77
-44.14
-38.73
-25.28
-6.83
11.29
24.67
32.35
36.81
41.94
50.25
61.55
73.76
84.59
93.22
100.45
107.52
114.57
120.21
122.21
119.12
111.52
102.05
94.56
92.55
98.24
112.02
132.74
158.09
184.76
209.04
227.10
236.20
235.70
227.62
216.14
205.84
199.88
198.42
198.73
196.49
187.81
170.91
146.71
118.07
87.99
58.21
29.15
0.95
-25.12
-46.20
-59.13
-62.49
-58.66
-53.57
-54.56
-67.36
-93.45
-130.21
-172.76
-216.99
-261.44
-306.61
-352.55
-396.51
-432.39
-452.84
-452.67
-431.45
-393.95
-348.05
-301.24
-257.59
-216.99
-176.43
-133.07
-86.72
-40.65
-0.12
30.79
51.87
67.45
84.43
109.27
144.59
187.70
231.85
269.16
293.69
303.29
299.19
284.05
260.31
228.95
189.68
141.49
83.44
15.63
-59.55
-136.94
-208.60
-265.16
-298.66
-305.07
-285.23
-244.13
-188.73
-126.68
-65.67
-13.75
21.30
33.90
23.61
-2.86
-32.46
-49.47
-41.91
-5.94
53.05
123.70
193.62
253.63
299.72
331.74
351.55
359.96
356.74
342.02
317.96
288.84
260.29
237.29
222.38
216.00
215.75
217.95
219.33
218.06
213.43
205.31
193.83
179.11
162.00
142.03
117.98
88.91
55.47
20.06
-13.83
-42.81
-70.44
-94.26
-109.45
-112.91
-105.64
-90.83
-71.37
-49.58
-27.68
-7.03
12.00
28.08
39.68
45.92
46.91
43.21
36.84
29.27
21.39
14.23
7.59
0.20
-9.56
-23.19
-41.91
-66.48
-97.12
-133.21
-173.03
-215.42
-260.44
-309.06
-362.06
-418.49
-474.39
-522.91
-555.54
-564.93
-547.43
-504.18
-440.41
-364.01
-284.45
-212.31
-159.10
-135.17
-146.59
-191.42
-258.23
-328.15
-381.05
-402.48
-388.59
-346.43
-289.45
-231.31
-180.62
-139.42
-104.82
-72.52
-39.93
-7.24
23.24
49.24
70.09
87.34
104.09
123.44
147.26
175.51
206.90
239.67
272.05
301.62
323.92
332.17
318.68
278.62
213.86
134.48
56.13
-5.80
-42.61
-55.47
-53.36
-47.15
-43.53
-42.50
-39.47
-29.92
-13.44
5.99
23.12
35.42
45.22
58.88
83.04
120.28
167.13
214.15
249.28
262.01
247.11
206.20
146.73
79.29
13.72
-43.27
-88.72
-121.94
-142.15
-147.52
-135.63
-105.52
-59.25
-2.22
58.83
118.03
172.02
220.20
263.18
301.41
334.33
360.75
379.46
390.29
394.09
392.41
387.08
379.90
372.35
365.31
358.72
350.82
338.31
317.18
284.11
238.26
181.73
119.10
56.02
-2.79
-54.72
-99.52
-138.79
-174.60
-208.01
-238.66
-264.69
-283.90
-295.46
-300.81
-303.85
-310.25
-325.66
-353.45
-393.09
-439.66
-484.90
-519.51
-536.01
-530.34
-502.65
-456.67
-398.47
-335.31
-274.78
-223.72
-186.91
-165.57
-156.64
-153.63
-148.59
-135.16
-110.70
-76.44
-35.99
7.14
51.44
97.88
149.17
208.13
275.55
348.73
421.36
484.69
530.41
553.81
556.00
543.56
525.80
510.95
503.17
502.01
503.95
504.94
502.07
493.66
478.20
453.78
418.49
372.18
318.05
262.42
212.82
175.02
150.44
135.67
124.08
108.83
85.57
53.80
16.19
-23.18
-60.95
-95.53
-126.95
-156.08
-183.75
-210.38
-236.35
-262.62
-290.68
-322.04
-356.73
-391.97
-422.13
-440.33
-440.84
-421.77
-385.88
-339.37
-289.31
-241.28
-197.94
-159.63
-125.93
-96.70
-71.96
-50.61
-29.80
-5.71
23.97
57.64
89.13
109.70
111.80
92.80
56.30
10.61
-34.87
-73.26
-102.01
-122.68
-138.86
-154.33
-172.34
-195.70
-227.15
-268.51
-318.96
-373.78
-424.69
-461.99
-478.02
-470.15
-441.58
-399.79
-353.30
-308.58
-268.76
-234.04
-203.35
-175.71
-150.52
-127.23
-105.02
-82.53
-58.35
-31.72
-2.80
27.25
56.96
85.83
114.89
146.01
181.51
223.05
270.65
322.03
372.54
416.58
449.19
467.59
470.90
460.84
441.86
420.05
400.92
386.67
375.21
360.85
336.89
297.46
240.71
169.87
92.13
15.09
-56.43
-120.76
-178.39
-223.31
-246.24
-242.05
-214.68
-173.69
-128.48
-86.44
-52.26
-29.44
-17.37
-15.95
-25.04
-43.31
-67.89
-94.20
-118.49
-132.73
-129.88
-109.01
-77.63
-46.87
-24.59
-12.47
-5.95
-0.54
5.92
13.48
21.25
29.40
40.51
59.29
89.29
132.35
184.58
237.32
279.20
298.99
290.97
257.33
209.35
153.22
102.42
69.01
57.06
60.75
67.58
69.17
63.30
54.31
43.54
31.06
13.71
-11.83
-47.52
-96.35
-157.56
-227.33
-295.53
-355.67
-402.70
-435.26
-453.53
-437.71
-380.33
-291.43
-214.96
-160.88
-129.99
-113.95
-109.94
-113.94
-119.89
-124.30
-116.90
-94.68
-60.94
-29.16
-10.03
-6.48
-13.16
-22.07
-29.96
-36.83
-46.13
-56.27
-65.70
-71.18
-69.71
-58.78
-38.01
-11.01
17.82
44.98
68.79
89.04
107.44
126.21
147.60
172.83
201.19
231.42
261.44
289.62
312.73
326.33
325.81
308.74
276.32
232.95
185.08
137.95
94.02
51.64
6.52
-45.29
-104.20
-165.71
-221.73
-263.73
-286.65
-290.77
-281.01
-264.56
-247.39
-231.86
-216.52
-198.13
-174.15
-144.57
-111.71
-78.29
-45.50
-12.12
24.54
66.64
114.07
164.17
212.91
257.18
296.03
330.09
359.81
383.55
397.74
398.84
386.01
362.41
333.81
305.45
278.99
251.96
219.66
178.81
129.85
77.11
26.28
-18.51
-56.41
-89.64
-121.47
-154.68
-190.83
-230.77
-275.21
-324.60
-377.90
-431.61
-479.34
-513.26
-526.76
-516.98
-485.91
-439.73
-386.40
-333.17
-284.92
-244.05
-211.46
-187.50
-172.22
-165.01
-164.00
-166.06
-167.66
-165.88
-159.65
-149.73
-138.23
-127.13
-117.09
-106.90
-93.87
-75.16
-49.23
-16.98
18.42
52.69
82.43
106.52
126.83
147.20
171.76
203.08
241.29
284.39
328.96
370.93
406.15
430.54
440.78
435.84
418.44
395.24
374.90
364.38
365.20
372.31
376.11
366.94
339.27
293.63
235.04
169.22
99.31
25.10
-54.55
-138.27
-219.75
-288.46
-333.46
-347.98
-332.47
-294.32
-244.28
-191.87
-142.01
-93.96
-43.58
13.30
77.94
147.26
214.54
271.78
312.40
333.65
337.66
330.71
320.54
313.26
310.61
309.63
304.42
289.20
261.41
222.77
178.33
133.87
93.80
59.94
31.99
8.66
-11.25
-28.13
-41.67
-51.60
-58.27
-62.93
-67.53
-73.83
-82.69
-93.60
-104.74
-113.90
-119.36
-120.63
-118.51
-114.51
-110.03
-105.64
-101.06
-95.46
-88.07
-78.46
-66.77
-53.51
-39.00
-23.41
-6.26
13.09
35.44
61.18
90.33
122.36
156.07
189.84
221.36
248.16
267.58
277.12
275.02
260.30
233.34
195.69
149.96
99.43
47.54
-2.71
-49.33
-91.35
-129.10
-163.52
-196.12
-228.80
-263.78
-302.52
-344.54
-386.52
-421.92
-443.47
-446.07
-430.26
-402.72
-373.93
-353.19
-343.90
-342.22
-339.06
-325.41
-296.79
-255.21
-207.27
-159.91
-117.02
-78.00
-39.39
2.38
48.83
99.26
151.91
205.45
259.34
312.67
362.79
404.66
431.66
437.63
419.34
377.81
317.99
247.30
173.39
102.78
39.77
-13.58
-57.36
-93.65
-126.42
-161.04
-202.66
-254.15
-313.83
-374.96
-427.07
-459.41
-464.64
-441.37
-394.76
-335.02
-274.95
-226.61
-198.69
-194.16
-209.65
-236.29
-262.47
-277.74
-276.04
-257.12
-225.24
-186.23
-144.62
-102.35
-59.70
-16.73
25.62
66.03
103.96
140.81
179.66
223.59
274.16
330.07
387.34
440.67
485.25
517.92
537.70
545.53
543.40
533.75
518.48
498.71
474.24
443.88
406.05
359.41
304.30
243.08
179.81
118.86
63.49
15.02
-26.96
-63.53
-95.83
-124.22
-148.94
-171.06
-193.28
-219.16
-251.20
-289.06
-328.28
-361.97
-382.60
-385.19
-368.99
-337.57
-297.01
-253.43
-211.39
-172.32
-137.04
-104.23
-71.76
-36.96
3.13
50.93
106.71
167.31
227.27
276.04
305.04
309.33
289.69
252.43
206.80
161.23
120.54
87.07
55.11
20.45
-18.99
-61.37
-101.16
-131.05
-144.83
-139.75
-114.48
-76.91
-32.88
13.39
60.73
110.83
166.42
229.13
279.17
333.43
381.22
414.58
427.42
417.15
385.12
335.67
274.50
206.55
138.27
69.00
0.72
-63.94
-122.01
-171.24
-211.54
-245.59
-278.42
-313.35
-356.75
-409.30
-467.11
-522.16
-564.32
-584.59
-577.97
-545.21
-490.83
-424.86
-355.72
-289.30
-228.48
-174.01
-125.63
-82.82
-44.98
-10.38
22.24
55.43
91.92
133.44
179.97
229.25
277.00
318.13
348.62
366.24
371.74
367.60
356.43
339.29
315.45
283.17
241.31
190.37
132.77
72.06
11.72
-45.36
-97.16
-142.08
-179.00
-207.76
-229.80
-248.45
-267.74
-290.44
-315.83
-339.28
-353.66
-352.54
-333.25
-298.23
-253.74
-206.80
-162.30
-121.63
-83.46
-45.83
-7.52
31.85
72.44
114.68
158.97
204.33
247.89
284.94
310.22
319.83
312.44
289.55
254.58
211.76
164.76
116.26
67.81
19.74
-28.64
-79.00
-133.22
-192.00
-253.23
-311.41
-358.66
-387.37
-393.34
-377.91
-347.49
-310.82
-275.18
-243.72
-215.32
-186.64
-154.93
-119.80
-83.05
-46.90
-12.05
23.22
62.37
109.10
165.84
232.59
305.96
379.57
444.69
492.03
514.18
507.89
475.43
424.20
364.65
307.03
258.67
222.28
196.27
176.63
159.55
143.57
130.17
122.77
124.33
135.31
152.69
171.07
185.06
191.71
191.16
185.59
176.65
163.80
144.27
114.78
74.07
24.09
-30.75
-85.59
-137.03
-183.63
-225.08
-260.77
-289.04
-307.16
-312.40
-303.23
-279.70
-243.29
-196.61
-143.09
-87.19
-34.26
9.95
40.72
55.66
55.95
46.39
34.62
29.18
37.00
61.06
99.23
144.35
186.68
217.00
229.29
222.02
197.63
160.44
114.69
63.12
6.83
-54.04
-118.96
-186.03
-250.93
-306.77
-345.43
-359.99
-347.77
-311.92
-260.74
-204.36
-150.58
-102.19
-56.74
-9.32
44.17
104.76
170.31
237.13
301.56
360.72
412.09
452.80
479.51
489.25
480.60
454.77
415.55
368.37
318.78
271.03
227.17
186.93
148.29
108.77
66.49
20.59
-28.63
-80.18
-133.00
-185.64
-236.23
-282.65
-322.94
-356.21
-383.27
-406.35
-427.95
-449.67
-471.44
-491.57
-507.83
-518.23
-521.44
-516.46
-502.13
-477.08
-440.33
-392.42
-335.62
-273.61
-210.32
-148.56
-89.18
-30.98
28.18
89.55
151.88
210.18
256.47
281.98
280.10
249.12
193.30
121.71
45.06
-27.13
-89.00
-138.32
-175.27
-200.51
-214.80
-219.07
-215.25
-206.51
-195.91
-185.08
-173.22
-157.35
-133.57
-99.41
-55.37
-5.50
43.27
83.55
109.92
120.77
118.61
108.36
94.68
79.11
58.80
27.66
-19.88
-84.76
-160.72
-235.25
-294.07
-326.59
-329.93
-309.10
-274.11
-234.98
-198.13
-165.38
-134.95
-104.40
-72.74
-40.70
-9.33
21.88
55.39
93.79
136.74
179.24
211.96
225.20
213.92
181.37
138.99
102.41
85.38
95.01
131.05
187.75
257.69
333.90
409.88
478.07
529.22
554.03
546.78
508.82
449.25
382.28
322.14
277.72
249.82
232.52
217.01
196.38
168.42
135.53
102.43
73.54
51.38
36.42
27.75
23.91
22.67
20.94
14.65
0.06
-24.20
-55.86
-89.72
-119.82
-141.85
-154.68
-159.32
-158.14
-153.04
-144.11
-129.89
-109.14
-82.21
-51.63
-21.29
5.89
27.47
42.27
50.83
55.28
58.04
61.20
66.34
74.26
85.98
99.96
111.97
116.76
110.09
89.89
57.03
15.25
-36.27
-89.37
-132.57
-158.28
-166.23
-160.62
-146.65
-128.73
-110.66
-95.63
-84.49
-77.96
-76.34
-78.74
-82.35
-82.94
-76.09
-59.13
-33.03
-2.00
26.17
43.66
46.89
38.48
25.45
15.54
13.28
18.43
27.96
37.75
45.12
50.00
54.16
58.50
62.36
63.70
60.25
51.24
37.03
19.37
0.55
-16.55
-30.91
-42.50
-52.04
-60.31
-67.47
-73.26
-77.04
-78.23
-76.74
-73.26
-68.87
-64.75
-61.75
-59.99
-59.25
-58.87
-58.16
-56.79
-54.96
-53.09
-51.66
-51.05
-51.13
-51.89
-53.02
-54.20
-55.25
-56.12
-56.71
-56.82
-57.08
-56.15
-53.42
-48.53
-41.43
-32.45
-22.24
-11.55
-1.15
8.37
16.87
23.99
29.54
33.31
34.93
34.08
30.60
24.59
16.55
7.51
-1.72
-10.52
-18.74
-26.66
-34.77
-43.51
-52.90
-62.47
-71.00
-77.60
-81.66
-83.30
-83.25
-82.62
-82.64
-84.61
-89.71
-98.15
-109.33
-121.19
-130.47
-133.55
-127.92
-113.43
-92.69
-70.24
-50.45
-36.64
-29.97
-29.68
-33.80
-40.19
-46.88
-51.86
-56.22
-59.19
-59.79
-57.42
-52.42
-46.10
-40.48
-37.68
-39.07
-45.00
-54.25
-65.21
-76.32
-86.54
-95.17
-101.75
-105.63
-105.97
-102.05
-93.36
-80.40
-64.71
-48.49
-34.03
-22.94
-15.78
-12.04
-10.44
-9.25
-7.18
-3.62
1.22
6.47
10.69
12.39
10.53
5.04
-2.77
-10.60
-15.67
-15.78
-9.85
1.86
17.99
36.77
56.53
76.08
94.58
111.56
127.03
141.54
156.21
172.63
192.49
217.08
246.70
280.06
313.92
343.38
363.16
369.42
361.38
341.94
316.65
291.44
270.25
253.78
239.95
225.78
209.25
190.41
170.80
152.10
134.91
118.55
101.74
83.69
64.90
47.03
32.09
21.34
14.73
10.88
7.76
3.69
-1.91
-8.38
-14.15
-17.55
-17.64
-14.61
-9.69
-4.48
-0.10
3.36
6.73
11.09
17.06
24.26
31.58
37.59
41.14
41.73
39.41
34.73
28.59
22.20
16.87
13.72
13.31
15.20
18.11
20.54
21.41
20.69
19.45
19.33
21.74
27.36
35.67
45.09
53.27
57.54
55.56
45.99
28.93
6.04
-19.77
-45.18
-67.39
-84.79
-97.49
-107.27
-117.34
-131.61
-153.47
-184.32
-222.30
-262.07
-296.10
-317.20
-320.95
-307.19
-279.74
-244.41
-206.76
-170.74
-138.54
-111.41
-90.50
-76.71
-69.98
-68.65
-69.51
-68.97
-64.58
-55.98
-44.68
-33.22
-23.61
-16.44
-10.98
-5.83
0.04
6.58
12.81
17.55
20.15
21.06
21.68
23.71
28.19
35.06
43.08
50.53
55.98
58.95
60.20
61.28
63.82
68.86
76.37
85.26
93.75
99.84
101.78
98.55
89.94
76.60
59.91
41.77
24.32
9.66
-0.48
-5.12
-4.34
0.68
7.98
15.53
21.82
26.32
29.42
32.02
34.72
37.44
39.32
39.23
36.39
30.95
24.02
17.28
12.22
9.57
9.03
9.56
10.00
9.76
9.04
8.66
9.48
11.82
15.25
18.91
21.94
23.93
24.93
25.24
24.99
23.99
21.87
18.34
13.53
8.00
2.65
-1.61
-4.22
-5.26
-5.44
-5.94
-8.04
-12.57
-19.60
-28.26
-36.93
-43.70
-46.96
-45.86
-40.58
-32.22
-22.51
-13.19
-5.47
0.29
4.52
8.00
11.34
14.62
17.35
18.93
19.13
18.27
17.12
16.39
16.30
16.48
16.20
14.93
12.80
10.64
9.50
10.11
12.43
15.54
18.24
19.59
19.40
18.21
16.93
16.22
16.14
16.25
15.88
14.63
12.50
9.87
7.02
4.07
0.88
-2.67
-6.29
-9.46
-11.56
-12.45
-12.63
-13.16
-15.16
-19.22
-25.00
-31.33
-36.70
-39.70
-39.54
-36.14
-29.93
-21.81
-12.84
-4.12
3.48
9.45
13.70
16.51
18.28
19.38
19.99
20.13
19.77
18.97
17.82
16.50
15.13
13.73
12.36
11.16
10.45
10.64
12.06
14.75
18.30
21.81
24.17
24.47
22.30
17.99
12.41
6.56
1.20
-3.29
-6.91
-9.74
-11.87
-13.36
-14.48
-15.65
-17.40
-20.07
-23.65
-27.74
-31.85
-35.56
-38.60
-40.71
-41.43
-40.16
-36.41
-30.19
-22.15
-13.46
-5.36
1.39
6.61
10.63
13.81
16.23
17.62
17.64
16.13
13.38
10.08
7.05
4.96
4.01
3.97
4.33
4.73
5.09
5.67
6.67
8.06
9.39
10.03
9.65
8.46
7.19
6.68
7.26
8.49
9.27
8.50
5.61
0.86
-4.77
-10.26
-14.87
-18.44
-21.17
-23.34
-25.04
-26.27
-27.14
-28.01
-29.44
-31.84
-34.96
-37.83
-38.98
-37.15
-31.89
-23.90
-14.58
-5.44
2.58
9.38
15.35
20.94
26.10
30.37
33.03
33.70
32.53
30.27
27.90
26.21
25.50
25.56
25.88
25.90
25.35
24.24
22.84
21.46
20.27
19.21
18.07
16.60
14.62
12.15
9.41
6.84
4.92
3.95
3.95
4.53
5.13
5.18
4.41
2.87
0.84
-1.37
-3.61
-5.85
-8.18
-10.68
-13.40
-16.33
-19.43
-22.66
-25.94
-29.28
-32.66
-36.14
-39.71
-43.33
-46.88
-50.27
-53.42
-56.20
-58.28
-59.03
-57.56
-53.07
-45.25
-34.61
-22.47
-10.50
-0.12
7.93
13.66
17.52
20.05
21.54
22.08
21.75
20.71
19.35
18.09
17.28
17.10
17.52
18.38
19.48
20.54
21.34
21.69
21.60
21.22
20.70
20.10
19.18
17.55
14.84
10.99
6.38
1.76
-2.10
-4.74
-6.27
-7.28
-8.53
-10.59
-13.60
-17.22
-21.00
-24.54
-27.69
-30.52
-33.15
-35.70
-38.23
-40.74
-43.23
-45.48
-47.08
-47.30
-45.38
-40.85
-33.81
-24.91
-15.13
-5.32
4.00
12.59
20.25
26.60
31.01
32.96
32.38
29.80
26.18
22.54
19.48
17.11
15.18
13.43
11.78
10.43
9.63
9.44
9.80
10.39
10.86
10.80
9.82
7.67
4.31
0.13
-4.21
-7.96
-10.73
-12.74
-14.80
-17.95
-22.97
-29.93
-38.04
-45.87
-51.80
-54.61
-53.87
-50.09
-44.56
-38.89
-34.57
-32.26
-31.47
-30.44
-26.59
-17.40
-1.43
20.76
46.55
71.85
92.48
105.60
110.68
109.31
104.25
98.09
92.22
86.59
80.33
72.64
63.47
53.70
44.75
37.96
33.96
32.41
32.23
32.08
30.87
28.05
23.61
17.80
10.86
2.99
-5.56
-14.27
-22.39
-29.15
-34.04
-37.15
-39.05
-40.50
-42.05
-43.88
-45.84
-47.72
-49.46
-51.14
-52.94
-54.99
-57.30
-59.87
-62.69
-65.59
-68.20
-69.71
-69.12
-65.54
-58.71
-49.24
-38.50
-28.13
-19.38
-12.67
-7.52
-2.99
1.67
6.70
11.73
15.99
18.83
19.98
19.64
18.25
16.41
14.59
13.16
12.43
12.53
13.44
14.93
16.55
17.87
18.57
18.49
17.57
15.68
12.56
8.05
2.21
-4.38
-10.79
-16.01
-19.49
-21.35
-22.41
-23.67
-25.85
-29.13
-33.18
-37.54
-41.91
-46.17
-50.23
-53.62
-55.37
-54.29
-49.44
-40.68
-28.86
-15.63
-2.85
8.00
16.26
22.12
26.32
29.63
32.40
34.53
35.51
34.90
32.68
29.43
26.10
23.61
22.41
22.33
22.76
23.06
22.98
22.73
22.79
23.46
24.57
25.48
25.28
23.32
19.57
14.50
8.94
3.53
-1.48
-6.32
-11.29
-16.53
-21.89
-26.92
-31.33
-35.21
-39.03
-43.43
-48.77
-54.74
-60.41
-64.51
-65.87
-63.86
-58.49
-50.32
-40.14
-28.78
-17.01
-5.55
5.01
14.23
21.90
28.10
33.08
37.02
39.89
41.49
41.61
40.39
38.37
36.25
34.63
33.74
33.39
33.25
33.09
32.87
32.59
32.13
31.21
29.58
27.24
24.56
22.09
20.22
18.89
17.48
15.17
11.41
6.21
0.17
-5.88
-11.30
-15.96
-20.17
-24.53
-29.51
-35.35
-41.99
-49.07
-56.01
-61.94
-65.79
-66.46
-63.16
-55.84
-45.27
-32.90
-20.27
-8.48
2.07
11.52
20.11
27.89
34.56
39.69
42.99
44.48
44.45
43.31
41.42
39.09
36.64
34.48
33.01
32.46
32.76
33.56
34.40
34.87
34.77
33.99
32.44
30.02
26.66
22.52
18.00
13.68
10.05
7.20
4.72
1.92
-1.71
-6.17
-10.93
-15.29
-18.83
-21.66
-24.31
-27.42
-31.37
-36.19
-41.66
-47.47
-53.27
-58.49
-62.32
-63.75
-61.81
-56.08
-46.88
-35.19
-22.38
-9.66
2.09
12.50
21.45
28.99
35.01
39.39
41.96
42.76
42.07
40.34
38.10
35.76
33.49
31.31
29.22
27.33
25.81
24.87
24.50
24.43
24.24
23.51
22.10
20.14
17.89
15.52
12.93
9.75
5.61
0.43
-5.46
-11.30
-16.25
-19.78
-21.85
-22.99
-23.96
-25.53
-28.15
-32.05
-37.17
-43.31
-50.04
-56.60
-61.91
-64.76
-64.15
-59.68
-51.62
-40.82
-28.40
-15.50
-3.07
8.16
17.69
25.30
31.02
35.07
37.71
39.10
39.23
38.10
35.85
32.95
30.03
27.63
26.02
25.08
24.47
23.86
23.05
22.01
20.77
19.29
17.51
15.37
12.92
10.26
7.59
5.01
2.52
0.05
-2.55
-5.37
-8.47
-11.83
-15.47
-19.35
-23.49
-27.96
-32.81
-38.06
-43.51
-48.72
-52.98
-55.41
-55.27
-52.15
-46.21
-38.00
-28.32
-17.93
-7.42
2.82
12.38
20.92
28.00
33.26
36.54
37.87
37.51
35.92
33.56
30.96
28.53
26.55
25.09
24.03
23.19
22.46
21.88
21.52
21.39
21.29
20.88
19.85
18.16
15.99
13.63
11.19
8.39
4.83
0.23
-5.32
-11.21
-16.61
-20.87
-23.84
-25.96
-27.99
-30.70
-34.53
-39.57
-45.61
-52.29
-59.08
-65.25
-69.83
-71.70
-69.91
-64.12
-54.83
-43.22
-30.80
-18.84
-7.96
1.81
10.73
18.90
25.98
31.37
34.60
35.62
34.95
33.49
32.07
31.14
30.72
30.46
30.02
29.26
28.37
27.75
27.83
28.75
30.20
31.51
31.90
30.78
28.14
24.51
20.69
17.37
14.71
12.33
9.52
5.67
0.62
-5.23
-11.21
-16.66
-21.29
-25.29
-29.10
-33.22
-37.96
-43.42
-49.49
-55.90
-62.17
-67.54
-70.99
-71.53
-68.42
-61.52
-51.35
-38.95
-25.55
-12.27
0.03
10.85
19.91
27.21
32.85
37.04
39.97
41.78
42.58
42.52
41.88
41.06
40.42
40.17
40.29
40.61
40.92
41.07
40.98
40.58
39.74
38.36
36.45
34.13
31.65
29.18
26.74
24.24
21.50
18.38
14.81
10.86
6.59
2.15
-2.37
-6.86
-11.33
-15.86
-20.68
-25.90
-31.50
-37.31
-43.14
-48.89
-54.66
-60.45
-66.00
-70.60
-73.16
-72.64
-68.51
-60.95
-50.70
-38.80
-26.16
-13.44
-1.12
10.32
20.40
28.71
35.12
39.81
43.10
45.23
46.24
46.08
44.83
42.81
40.60
38.74
37.51
36.80
36.29
35.60
34.51
32.99
31.11
28.89
26.37
23.64
20.89
18.37
16.23
14.47
12.80
10.69
7.52
2.84
-3.51
-11.21
-19.53
-27.55
-34.50
-40.02
-44.37
-48.30
-52.62
-57.79
-63.56
-69.03
-72.91
-74.02
-71.71
-65.98
-57.40
-46.74
-34.80
-22.21
-9.47
2.88
14.21
23.91
31.54
36.88
39.97
41.00
40.26
38.14
35.13
31.89
29.09
27.25
26.60
26.97
27.94
29.04
29.91
30.31
30.15
29.35
27.86
25.61
22.62
19.03
14.99
10.72
6.31
1.81
-2.77
-7.47
-12.33
-17.31
-22.33
-27.35
-32.35
-37.49
-42.97
-48.97
-55.36
-61.59
-66.68
-69.45
-68.93
-64.69
-57.00
-46.59
-34.40
-21.29
-7.95
5.00
16.84
26.85
34.52
39.66
42.69
44.26
44.97
45.06
44.40
42.67
39.79
36.17
32.57
29.81
28.36
28.13
28.57
29.02
28.92
28.08
26.58
24.62
22.34
19.79
16.93
13.74
10.18
6.20
1.72
-3.32
-8.91
-14.91
-21.02
-26.86
-32.07
-36.51
-40.32
-43.96
-48.05
-53.17
-59.40
-66.18
-72.31
-76.28
-76.76
-73.05
-65.32
-54.44
-41.57
-27.83
-14.07
-0.85
11.39
22.30
31.44
38.49
43.35
46.20
47.47
47.65
47.13
46.05
44.45
42.35
39.97
37.83
36.52
36.38
37.31
38.70
39.73
39.72
38.38
35.89
32.70
29.25
25.80
22.43
19.10
15.65
11.94
7.77
2.97
-2.49
-8.44
-14.51
-20.22
-25.26
-29.62
-33.57
-37.63
-42.34
-48.00
-54.69
-62.00
-69.10
-74.84
-77.95
-77.36
-72.51
-63.56
-51.28
-36.86
-21.56
-6.50
7.47
19.77
29.99
37.96
43.73
47.51
49.64
50.40
50.06
48.79
46.76
44.10
40.96
37.47
33.82
30.27
27.28
25.37
24.85
25.62
26.97
27.95
27.68
25.86
22.89
19.57
16.64
14.40
12.53
10.43
7.53
3.60
-1.22
-6.64
-12.40
-18.38
-24.47
-30.38
-35.74
-40.15
-43.54
-46.25
-48.96
-52.34
-56.59
-61.20
-65.01
-66.59
-64.84
-59.34
-50.41
-38.94
-25.98
-12.55
0.54
12.64
23.23
31.94
38.60
43.31
46.35
48.00
48.44
47.72
45.90
43.16
39.92
36.71
33.99
32.02
30.85
30.32
30.23
30.38
30.54
30.42
29.73
28.18
25.70
22.51
19.03
15.78
13.03
10.72
8.48
5.79
2.23
-2.25
-7.43
-12.84
-17.94
-22.39
-26.07
-29.17
-32.12
-35.51
-39.89
-45.51
-52.13
-58.81
-64.07
-66.37
-64.67
-58.81
-49.54
-38.20
-26.07
-14.08
-2.57
8.41
18.83
28.36
36.41
42.33
45.76
46.77
45.80
43.55
40.63
37.45
34.19
30.90
27.78
25.19
23.57
23.18
23.81
24.74
25.06
24.11
21.81
18.68
15.48
12.75
10.48
8.25
5.48
1.85
-2.61
-7.60
-12.78
-17.89
-22.84
-27.55
-32.08
-36.64
-41.56
-47.15
-53.37
-59.66
-64.97
-67.97
-67.58
-63.31
-55.37
-44.51
-31.72
-17.95
-4.01
9.30
21.14
30.73
37.47
41.16
42.16
41.22
39.14
36.52
33.56
30.24
26.59
22.94
19.94
18.27
18.18
19.37
21.03
22.30
22.56
21.70
19.98
17.75
15.17
12.23
8.79
4.83
0.47
-4.09
-8.70
-13.37
-18.24
-23.40
-28.80
-34.22
-39.45
-44.47
-49.54
-55.07
-61.30
-67.96
-74.09
-78.26
-79.12
-75.87
-68.58
-58.12
-45.66
-32.26
-18.71
-5.52
6.84
17.87
27.10
34.28
39.48
43.05
45.40
46.79
47.28
46.82
45.45
43.42
41.15
39.10
37.58
36.71
36.31
36.08
35.64
34.63
32.87
30.34
27.22
23.84
20.39
16.92
13.23
9.01
4.00
-1.83
-8.26
-15.00
-21.71
-28.21
-34.40
-40.27
-45.94
-51.66
-57.79
-64.58
-71.90
-78.90
-84.25
-86.43
-84.37
-77.91
-67.81
-55.32
-41.64
-27.61
-13.70
-0.33
11.98
22.56
30.90
36.86
40.72
43.03
44.31
44.87
44.77
44.03
42.70
40.92
38.93
37.04
35.65
35.11
35.63
37.06
38.81
40.03
39.96
38.32
35.38
31.82
28.24
24.87
21.39
17.21
11.89
5.46
-1.59
-8.54
-14.86
-20.45
-25.54
-30.61
-36.07
-42.19
-49.06
-56.63
-64.63
-72.45
-79.10
-83.21
-83.41
-78.84
-69.45
-56.24
-40.84
-25.09
-10.40
2.49
13.54
23.06
31.36
38.48
44.16
48.03
49.89
49.86
48.43
46.21
43.73
41.34
39.24
37.57
36.56
36.39
37.06
38.23
39.27
39.48
38.44
36.21
33.20
29.87
26.43
22.73
18.45
13.36
7.54
1.34
-4.78
-10.64
-16.25
-21.78
-27.37
-33.00
-38.59
-44.20
-50.02
-56.21
-62.67
-68.75
-73.20
-74.65
-72.06
-65.20
-54.70
-41.77
-27.75
-13.74
-0.41
11.80
22.54
31.45
38.19
42.56
44.73
45.12
44.33
42.91
41.24
39.56
38.03
36.76
35.87
35.41
35.32
35.45
35.55
35.43
34.90
33.87
32.27
30.01
26.99
23.14
18.45
12.98
6.93
0.59
-5.73
-11.75
-17.39
-22.72
-28.00
-33.53
-39.56
-46.24
-53.52
-61.22
-68.89
-75.79
-80.87
-82.87
-80.73
-73.94
-62.84
-48.61
-32.92
-17.39
-3.09
9.56
20.62
30.21
38.25
44.40
48.29
49.79
49.22
47.24
44.60
41.93
39.57
37.63
36.16
35.24
35.03
35.58
36.82
38.37
39.73
40.35
39.90
38.25
35.59
32.23
28.50
24.60
20.53
16.10
11.11
5.44
-0.81
-7.43
-14.12
-20.65
-26.87
-32.71
-38.20
-43.46
-48.80
-54.64
-61.38
-69.04
-77.15
-84.48
-89.43
-90.35
-86.19
-76.88
-63.30
-47.13
-30.27
-14.32
-0.23
11.72
21.75
30.20
37.26
42.89
46.98
49.55
50.81
51.17
50.96
50.25
48.90
46.78
44.08
41.46
39.82
39.87
41.75
44.81
47.86
49.73
49.70
47.74
44.35
40.22
35.91
31.67
27.48
23.26
18.88
14.22
9.08
3.22
-3.50
-10.96
-18.71
-26.19
-32.92
-38.79
-44.19
-49.85
-56.53
-64.62
-73.88
-83.29
-91.28
-96.09
-96.26
-91.10
-80.89
-66.72
-50.14
-32.75
-15.78
-0.01
14.21
26.74
37.52
46.52
53.65
58.85
62.05
63.36
63.03
61.58
59.58
57.57
55.82
54.45
53.40
52.68
52.36
52.52
53.08
53.72
53.83
52.82
50.37
46.59
41.93
36.98
32.11
27.37
22.57
17.37
11.56
5.11
-1.88
-9.15
-16.49
-23.72
-30.76
-37.55
-44.10
-50.47
-56.83
-63.40
-70.42
-77.84
-85.13
-91.24
-94.69
-94.04
-88.40
-77.89
-63.66
-47.50
-31.25
-16.19
-2.82
8.93
19.31
28.37
35.83
41.26
44.31
45.02
43.84
41.55
38.97
36.82
35.45
34.96
35.23
36.08
37.35
38.85
40.39
41.72
42.72
43.48
44.45
46.25
49.34
53.68
58.51
62.45
64.00
61.98
55.92
46.06
33.10
17.92
1.37
-15.72
-32.46
-47.98
-61.56
-72.86
-81.99
-89.29
-94.98
-98.81
-100.01
-97.58
-90.82
-79.73
-65.18
-48.64
-31.76
-15.89
-1.88
9.97
19.74
27.63
33.77
38.21
40.88
41.73
40.89
38.75
35.91
33.09
30.89
29.63
29.28
29.55
30.13
30.78
31.46
32.19
32.85
33.12
32.57
30.82
27.80
23.82
19.40
14.99
10.67
6.18
1.07
-4.91
-11.65
-18.73
-25.65
-32.10
-38.14
-44.05
-50.12
-56.58
-63.49
-70.87
-78.62
-86.36
-93.25
-97.99
-99.14
-95.55
-86.84
-73.72
-57.65
-40.44
-23.62
-8.07
5.88
18.33
29.35
38.79
46.35
51.73
54.87
56.04
55.80
54.77
53.48
52.17
50.87
49.51
48.06
46.70
45.72
45.43
45.92
46.89
47.69
47.54
45.84
42.43
37.70
32.32
26.98
22.02
17.34
12.55
7.28
1.33
-5.25
-12.27
-19.52
-26.79
-33.89
-40.64
-46.88
-52.66
-58.26
-64.16
-70.63
-77.51
-83.88
-88.28
-89.09
-85.15
-76.23
-63.06
-47.13
-30.13
-13.51
1.82
15.46
27.29
37.27
45.29
51.22
55.04
56.98
57.44
56.97
55.98
54.69
53.10
51.10
48.60
45.64
42.43
39.31
36.59
34.43
32.76
31.22
29.35
26.76
23.30
19.15
14.73
10.43
6.41
2.51
-1.60
-6.22
-11.42
-17.01
-22.74
-28.39
-33.90
-39.35
-44.88
-50.66
-56.92
-63.74
-70.95
-77.87
-83.29
-85.66
-83.73
-77.01
-66.05
-52.15
-36.88
-21.54
-6.93
6.48
18.36
28.31
35.98
41.25
44.26
45.43
45.17
43.87
41.85
39.47
37.16
35.28
34.04
33.37
33.02
32.67
32.08
31.12
29.79
28.06
25.87
23.19
20.01
16.39
12.45
8.32
4.05
-0.39
-5.06
-10.06
-15.44
-21.24
-27.46
-34.16
-41.45
-49.38
-57.76
-65.91
-72.72
-76.85
-77.14
-73.04
-64.71
-52.93
-38.75
-23.24
-7.34
8.07
22.13
34.00
43.07
49.06
52.08
52.57
51.14
48.41
44.90
41.08
37.34
34.06
31.51
29.84
29.07
29.00
29.32
29.63
29.58
28.94
27.71
25.98
23.86
21.36
18.38
14.79
10.53
5.64
0.15
-5.87
-12.40
-19.34
-26.50
-33.53
-40.16
-46.35
-52.40
-58.90
-66.32
-74.71
-83.34
-90.76
-95.21
-95.14
-89.76
-79.24
-64.62
-47.50
-29.59
-12.38
3.09
16.18
26.71
34.74
40.54
44.38
46.54
47.28
46.86
45.66
44.04
42.30
40.60
38.85
36.87
34.58
32.12
29.91
28.43
27.91
28.13
28.48
28.25
26.96
24.63
21.65
18.49
15.38
12.12
8.23
3.30
-2.69
-9.35
-16.06
-22.34
-28.06
-33.44
-38.93
-44.98
-51.85
-59.51
-67.57
-75.16
-81.07
-83.97
-82.79
-77.11
-67.25
-54.18
-39.16
-23.40
-7.85
6.79
20.07
31.61
41.11
48.36
53.27
55.91
56.49
55.46
53.37
50.82
48.29
46.00
43.92
41.95
40.11
38.56
37.58
37.22
37.22
37.09
36.29
34.51
31.83
28.60
25.27
22.08
18.93
15.48
11.32
6.18
0.10
-6.63
-13.66
-20.69
-27.59
-34.46
-41.54
-49.08
-57.17
-65.55
-73.51
-79.92
-83.47
-83.01
-77.98
-68.63
-55.86
-41.04
-25.53
-10.40
3.68
16.28
27.19
36.15
42.93
47.34
49.31
48.94
46.63
42.96
38.67
34.54
31.13
28.72
27.25
26.41
25.86
25.41
25.07
24.91
24.95
24.96
24.45
22.89
19.87
15.32
9.57
3.12
-3.41
-9.57
-15.18
-20.28
-25.06
-29.76
-34.61
-39.90
-46.04
-53.29
-61.61
-70.35
-78.18
-83.36
-84.27
-79.98
-70.57
-57.09
-41.05
-23.96
-7.03
8.91
23.15
35.06
44.06
49.90
52.69
53.02
51.68
49.43
46.83
44.20
41.72
39.54
37.84
36.76
36.41
36.71
37.37
38.00
38.14
37.42
35.66
32.93
29.43
25.40
21.02
16.29
11.19
5.68
-0.19
-6.20
-12.10
-17.69
-22.90
-27.83
-32.66
-37.59
-42.83
-48.59
-55.06
-62.20
-69.58
-76.15
-80.44
-80.86
-76.32
-66.69
-52.86
-36.41
-19.07
-2.22
13.24
26.83
38.15
46.84
52.57
55.33
55.49
53.71
50.82
47.52
44.23
41.08
38.08
35.19
32.55
30.38
28.91
28.28
28.31
28.60
28.62
27.93
26.35
24.01
21.22
18.24
15.16
11.87
8.16
3.96
-0.62
-5.32
-9.90
-14.27
-18.60
-23.14
-28.13
-33.54
-39.12
-44.49
-49.41
-53.80
-57.63
-60.71
-62.55
-62.36
-59.34
-53.02
-43.55
-31.63
-18.32
-4.73
8.30
20.21
30.69
39.49
46.49
51.60
54.89
56.61
57.13
56.87
56.21
55.40
54.54
53.60
52.59
51.68
51.23
51.60
53.05
55.42
58.14
60.37
61.33
60.69
58.81
56.66
55.31
55.48
56.98
58.73
59.17
56.94
51.55
43.71
35.20
28.10
24.00
23.08
23.72
22.75
16.34
1.43
-23.19
-56.23
-94.30
-133.10
-168.92
-199.75
-225.78
-249.09
-272.76
-299.57
-330.50
-363.58
-393.62
-413.36
-415.82
-397.05
-358.12
-305.13
-247.07
-192.67
-147.60
-113.59
-89.25
-72.15
-60.25
-52.33
-47.46
-44.02
-39.77
-32.43
-20.94
-6.00
10.02
24.08
33.80
38.26
38.31
35.95
33.51
32.85
34.84
39.21
44.76
49.73
52.25
50.93
45.28
35.98
24.89
14.62
7.79
6.20
10.34
19.36
31.63
45.40
59.42
73.04
85.97
97.89
108.25
116.36
121.82
124.70
125.48
124.74
122.80
119.71
115.40
110.05
104.23
98.85
94.73
92.32
91.56
91.95
92.75
93.24
92.95
91.64
89.27
85.96
81.74
76.51
69.98
61.72
51.53
39.54
26.38
12.90
-0.03
-11.74
-21.82
-30.19
-37.11
-43.18
-49.30
-56.32
-64.47
-72.88
-79.56
-81.97
-78.18
-67.69
-51.84
-33.21
-14.54
2.36
17.05
30.12
42.48
54.51
65.79
75.31
82.05
85.53
86.07
84.59
82.17
79.57
77.11
74.81
72.62
70.76
69.64
69.57
70.45
71.59
71.91
70.36
66.47
60.52
53.42
46.33
40.09
35.01
30.71
26.41
21.17
14.35
5.82
-3.88
-13.63
-22.21
-28.82
-33.50
-37.25
-41.65
-48.08
-56.95
-67.28
-76.92
-83.36
-84.68
-80.33
-71.00
-58.18
-43.46
-27.99
-12.42
2.86
17.48
30.91
42.56
51.94
58.89
63.53
66.24
67.49
67.76
67.30
66.20
64.42
61.99
59.22
56.65
54.85
54.10
54.13
54.28
53.73
51.98
49.05
45.45
41.78
38.55
35.74
32.85
29.11
23.68
16.09
6.52
-4.11
-14.44
-23.09
-29.25
-33.05
-35.43
-37.74
-41.23
-46.77
-54.60
-64.28
-74.64
-83.92
-90.12
-91.56
-87.54
-78.51
-65.87
-51.38
-36.46
-21.81
-7.62
6.10
19.09
30.70
40.15
46.82
50.52
51.56
50.62
48.50
46.00
43.72
41.98
40.84
40.22
39.98
39.97
39.99
39.75
38.89
37.03
34.01
29.99
25.45
20.93
16.71
12.69
8.34
3.17
-3.04
-10.00
-17.07
-23.61
-29.29
-34.27
-39.03
-44.20
-50.21
-57.17
-64.72
-72.05
-77.97
-81.16
-80.47
-75.37
-66.06
-53.47
-38.90
-23.55
-8.37
5.97
18.92
29.95
38.67
44.91
48.91
51.20
52.34
52.71
52.33
50.98
48.52
45.02
40.95
37.03
33.97
32.27
31.99
32.69
33.57
33.76
32.55
29.74
25.60
20.72
15.71
10.95
6.44
1.94
-2.76
-7.77
-13.01
-18.41
-24.00
-29.97
-36.53
-43.75
-51.54
-59.74
-68.23
-76.82
-85.09
-92.14
-96.69
-97.44
-93.58
-85.12
-72.89
-58.23
-42.42
-26.42
-10.85
3.80
17.03
28.26
37.11
43.47
47.66
50.24
51.78
52.55
52.57
51.68
49.82
47.23
44.37
41.89
40.26
39.67
39.91
40.52
40.95
40.73
39.61
37.54
34.63
31.10
27.25
23.25
19.18
14.87
10.03
4.45
-1.87
-8.71
-15.73
-22.74
-29.76
-36.97
-44.66
-52.96
-61.88
-71.22
-80.47
-88.73
-94.76
-97.20
-94.99
-87.82
-76.25
-61.58
-45.40
-29.06
-13.39
1.24
14.66
26.67
37.00
45.37
51.74
56.30
59.36
61.20
61.91
61.45
59.90
57.57
55.09
53.19
52.37
52.69
53.62
54.31
53.90
51.91
48.40
43.91
39.25
35.37
33.02
32.45
33.33
34.64
35.05
33.22
28.33
20.49
10.94
1.62
-5.52
-9.41
-10.30
-9.87
-10.63
-14.98
-24.14
-37.04
-50.83
-61.88
-67.35
-66.26
-59.84
-50.98
-43.06
-38.74
-38.43
-41.10
-44.98
-48.63
-51.41
-53.65
-56.88
-63.63
-76.70
-96.17
-119.95
-144.34
-165.16
-178.25
-180.13
-168.84
-144.61
-110.01
-66.94
-17.78
34.53
87.32
138.98
188.52
233.08
266.53
281.09
274.97
253.33
226.97
207.98
204.84
218.90
243.51
267.98
263.41
214.66
128.05
27.48
-63.31
-134.28
-188.26
-232.76
-272.95
-308.05
-333.91
-345.75
-342.35
-327.31
-306.56
-284.88
-264.42
-244.65
-224.60
-200.47
-168.79
-128.85
-83.29
-36.09
9.28
50.63
86.73
117.08
143.03
166.45
188.25
208.07
225.31
240.33
254.77
270.93
290.32
312.93
335.63
351.91
353.75
334.94
293.91
234.56
164.55
92.44
25.20
-33.09
-81.18
-119.22
-147.50
-166.31
-176.80
-182.29
-188.31
-201.16
-225.19
-260.36
-301.23
-338.07
-360.30
-360.41
-337.00
-295.23
-244.50
-194.82
-153.31
-122.41
-100.32
-83.04
-66.07
-45.72
-19.26
14.56
54.47
95.81
130.26
147.81
140.52
107.00
54.64
-1.28
-42.43
-54.22
-31.21
20.86
87.65
152.11
200.42
225.84
229.12
216.15
194.95
173.90
161.01
163.23
184.96
225.61
277.84
328.55
362.75
368.86
343.92
294.70
234.13
175.18
125.62
86.11
51.89
16.21
-26.63
-77.81
-132.93
-183.12
-217.99
-229.24
-214.31
-177.99
-131.91
-91.72
-70.35
-73.17
-97.06
-133.62
-173.48
-210.32
-241.60
-267.92
-292.71
-318.10
-343.26
-364.78
-378.46
-380.74
-370.31
-347.85
-307.37
-251.58
-191.28
-139.48
-103.12
-81.81
-68.83
-59.85
-52.85
-46.57
-40.75
-33.48
-21.38
-1.44
27.04
62.08
99.80
136.90
172.07
205.00
237.30
271.20
307.38
343.18
373.08
390.70
392.29
378.39
352.81
321.79
291.54
265.98
245.60
228.29
211.01
191.93
171.17
150.09
130.83
115.41
105.02
99.53
97.67
97.57
97.58
96.53
93.69
88.78
81.84
73.07
62.78
51.45
39.71
28.41
18.55
11.18
7.16
6.91
9.99
14.73
18.22
16.94
7.72
-11.02
-38.57
-72.19
-107.86
-141.73
-171.12
-195.05
-214.05
-229.95
-245.48
-263.65
-286.67
-314.49
-343.73
-367.89
-379.15
-371.08
-341.02
-290.90
-226.31
-154.55
-82.92
-17.73
35.90
74.28
95.54
100.22
91.37
73.82
53.06
34.04
20.46
14.52
16.80
25.59
37.21
46.45
48.18
39.07
18.57
-11.62
-49.11
-92.10
-139.15
-187.62
-232.21
-265.00
-277.88
-265.94
-229.98
-176.37
-114.33
-52.40
3.68
50.68
86.13
106.75
108.66
89.49
50.43
-3.42
-64.98
-127.96
-188.52
-244.52
-293.47
-331.09
-351.82
-351.43
-329.94
-292.72
-248.76
-207.04
-173.12
-147.79
-128.26
-110.74
-92.85
-74.27
-55.97
-38.67
-21.74
-3.31
18.86
46.43
80.04
118.95
161.11
203.08
240.21
267.29
280.05
276.64
258.67
230.73
198.80
168.06
141.45
119.47
101.07
84.99
70.55
57.77
46.77
37.27
28.62
20.16
11.87
4.52
-0.45
-1.49
2.38
11.12
23.61
37.98
52.18
64.69
74.83
82.63
88.43
92.30
93.94
92.74
88.29
80.71
70.75
59.68
48.81
39.29
31.90
27.00
24.60
24.36
25.68
27.82
30.00
31.45
31.55
29.89
26.44
21.61
16.37
11.97
9.57
9.81
12.36
16.08
19.32
20.54
18.86
14.18
7.11
-1.47
-10.65
-19.74
-28.27
-35.88
-42.27
-47.24
-50.53
-51.84
-50.75
-46.68
-39.11
-27.83
-13.18
3.86
21.81
38.97
53.85
65.42
73.21
77.18
77.58
74.81
69.52
62.60
55.16
48.33
42.95
39.37
37.38
36.30
35.36
33.97
31.88
29.23
26.30
23.34
20.39
17.25
13.68
9.51
4.82
-0.17
-5.18
-9.98
-14.54
-18.96
-23.42
-28.07
-32.90
-37.87
-42.87
-47.80
-52.35
-56.07
-58.23
-57.98
-54.66
-48.02
-38.46
-26.94
-14.75
-3.14
6.98
15.20
21.50
26.11
29.24
30.96
31.25
30.03
27.39
23.67
19.55
15.86
13.36
12.41
12.87
14.18
15.59
16.55
16.81
16.51
15.87
15.07
14.11
12.85
11.11
8.77
5.77
2.03
-2.45
-7.53
-12.85
-17.85
-22.01
-25.16
-27.66
-30.25
-33.64
-37.97
-42.53
-45.79
-46.01
-41.78
-32.67
-19.50
-4.18
10.76
22.87
30.52
33.55
33.60
33.86
38.18
49.72
69.63
96.23
125.24
150.95
167.82
172.00
162.27
140.36
110.25
77.16
46.09
20.60
2.04
-10.40
-18.79
-25.30
-31.15
-36.49
-41.03
-44.88
-48.97
-54.53
-62.10
-70.71
-78.13
-81.95
-81.04
-76.24
-70.02
-65.04
-62.76
-62.76
-63.14
-61.66
-56.89
-48.60
-37.50
-24.56
-10.54
4.06
18.69
32.51
44.44
53.47
59.01
61.13
60.56
58.30
55.33
52.41
49.96
48.09
46.65
45.31
43.70
41.54
38.82
35.72
32.66
30.00
27.86
26.13
24.48
22.57
20.18
17.26
13.85
10.04
5.92
1.56
-2.89
-7.25
-11.33
-15.05
-18.46
-21.77
-25.22
-28.97
-33.01
-37.03
-40.48
-42.62
-42.69
-40.09
-34.63
-26.54
-16.55
-5.65
5.17
15.08
23.53
30.25
35.16
38.33
39.90
40.07
39.06
37.10
34.43
31.37
28.24
25.45
23.34
22.10
21.73
22.01
22.62
23.20
23.48
23.26
22.48
21.16
19.37
17.21
14.75
12.03
8.99
5.66
2.09
-1.58
-5.21
-8.68
-11.99
-15.18
-18.30
-21.44
-24.69
-28.17
-31.95
-35.87
-39.47
-41.96
-42.43
-40.18
-34.99
-27.26
-17.87
-7.88
1.82
10.62
18.24
24.62
29.73
33.55
35.96
36.87
36.33
34.58
32.07
29.30
26.71
24.53
22.76
21.27
19.88
18.53
17.26
16.13
15.14
14.16
12.90
11.04
8.34
4.74
0.40
-4.34
-8.99
-13.08
-16.24
-18.41
-19.72
-20.54
-21.30
-22.36
-23.91
-25.94
-28.42
-31.31
-34.75
-38.86
-43.58
-48.56
-53.06
-56.23
-57.25
-55.59
-50.98
-43.33
-32.74
-19.65
-5.01
9.67
22.56
32.14
37.67
39.58
39.06
37.54
35.95
34.47
32.79
30.59
27.93
25.34
23.48
22.71
22.87
23.31
23.29
22.30
20.27
17.55
14.66
12.02
9.82
8.01
6.42
4.86
3.21
1.38
-0.68
-3.04
-5.79
-8.99
-12.59
-16.40
-20.13
-23.52
-26.39
-28.77
-30.86
-32.94
-35.14
-37.35
-39.07
-39.64
-38.40
-34.96
-29.30
-21.80
-13.12
-4.01
4.76
12.56
18.91
23.59
26.56
27.99
28.16
27.35
25.81
23.75
21.44
19.23
17.52
16.58
16.39
16.67
16.96
16.89
16.27
15.16
13.72
12.03
10.01
7.53
4.61
1.47
-1.54
-4.19
-6.46
-8.58
-10.90
-13.62
-16.70
-19.87
-22.77
-25.15
-26.97
-28.41
-29.73
-31.13
-32.67
-34.14
-35.15
-35.17
-33.67
-30.31
-25.06
-18.27
-10.57
-2.71
4.62
10.93
15.99
19.82
22.56
24.40
25.47
25.76
25.25
23.98
22.07
19.75
17.34
15.08
13.16
11.68
10.70
10.28
10.45
11.05
11.79
12.25
12.07
11.10
9.43
7.33
5.08
2.79
0.39
-2.25
-5.20
-8.35
-11.47
-14.34
-16.87
-19.12
-21.29
-23.55
-26.07
-28.99
-32.35
-35.99
-39.51
-42.19
-43.17
-41.74
-37.64
-31.16
-23.10
-14.46
-6.15
1.25
7.43
12.29
15.80
17.98
18.94
18.94
18.30
17.30
16.18
15.04
14.00
13.14
12.56
12.32
12.32
12.41
12.38
12.12
11.60
10.86
9.93
8.80
7.38
5.63
3.59
1.41
-0.69
-2.59
-4.29
-5.95
-7.84
-10.15
-12.96
-16.07
-19.09
-21.58
-23.21
-24.01
-24.32
-24.73
-25.77
-27.65
-30.05
-32.24
-33.30
-32.52
-29.56
-24.57
-18.04
-10.60
-2.89
4.58
11.36
17.07
21.41
24.22
25.55
25.62
24.80
23.44
21.84
20.21
18.68
17.40
16.46
15.96
15.91
16.23
16.80
17.40
17.84
17.98
17.67
16.83
15.40
13.41
10.96
8.27
5.57
3.08
0.90
-1.05
-3.00
-5.20
-7.86
-10.98
-14.34
-17.63
-20.52
-22.87
-24.79
-26.56
-28.48
-30.75
-33.25
-35.55
-37.05
-37.13
-35.33
-31.51
-25.88
-18.92
-11.39
-4.07
2.37
7.52
11.22
13.62
14.97
15.52
15.49
14.99
14.13
13.04
11.92
10.91
10.12
9.56
9.21
9.03
9.03
9.24
9.65
10.17
10.60
10.71
10.34
9.46
8.19
6.78
5.42
4.16
2.89
1.40
-0.55
-2.99
-5.82
-8.74
-11.48
-13.85
-15.89
-17.75
-19.68
-21.88
-24.40
-27.06
-29.51
-31.26
-31.86
-30.95
-28.37
-24.18
-18.65
-12.27
-5.64
0.64
6.06
10.32
13.35
15.35
16.53
17.17
17.37
17.14
16.46
15.31
13.81
12.15
10.58
9.33
8.60
8.54
9.15
10.23
11.44
12.28
12.34
11.43
9.64
7.40
5.18
3.36
2.03
1.00
-0.09
-1.61
-3.76
-6.56
-9.86
-13.46
-17.12
-20.67
-23.99
-27.04
-29.78
-32.10
-33.83
-34.67
-34.29
-32.38
-28.82
-23.68
-17.29
-10.16
-2.91
3.89
9.77
14.44
17.78
19.85
20.81
20.90
20.36
19.45
18.38
17.32
16.34
15.47
14.75
14.21
13.91
13.88
14.10
14.40
14.57
14.40
13.80
12.81
11.54
10.05
8.36
6.44
4.24
1.83
-0.72
-3.28
-5.79
-8.25
-10.68
-13.06
-15.31
-17.30
-19.03
-20.59
-22.22
-24.14
-26.38
-28.67
-30.51
-31.30
-30.56
-28.14
-24.21
-19.18
-13.54
-7.75
-2.14
3.01
7.50
11.13
13.75
15.28
15.73
15.30
14.29
13.11
12.09
11.47
11.27
11.40
11.70
12.07
12.43
12.81
13.14
13.30
13.12
12.40
11.13
9.45
7.64
5.98
4.67
3.68
2.82
1.82
0.41
-1.58
-4.14
-7.09
-10.20
-13.18
-15.84
-18.10
-19.99
-21.66
-23.29
-25.04
-26.93
-28.87
-30.49
-31.32
-30.81
-28.55
-24.40
-18.59
-11.69
-4.43
2.45
8.41
13.13
16.55
18.74
19.86
20.09
19.62
18.58
17.13
15.43
13.66
12.04
10.77
9.99
9.71
9.78
9.99
10.17
10.27
10.36
10.56
10.90
11.23
11.25
10.69
9.37
7.34
4.82
2.09
-0.58
-3.03
-5.23
-7.24
-9.18
-11.09
-12.97
-14.68
-16.10
-17.12
-17.83
-18.50
-19.47
-21.00
-23.03
-25.13
-26.57
-26.57
-24.60
-20.56
-14.81
-8.03
-1.03
5.55
11.28
15.93
19.34
21.40
22.07
21.45
19.89
17.87
15.89
14.34
13.31
12.68
12.19
11.63
10.94
10.21
9.61
9.28
9.25
9.43
9.63
9.59
9.07
8.01
6.51
4.88
3.46
2.45
1.81
1.27
0.47
-0.81
-2.60
-4.68
-6.78
-8.72
-10.48
-12.22
-14.08
-16.14
-18.36
-20.61
-22.75
-24.60
-25.93
-26.45
-25.85
-23.90
-20.50
-15.76
-9.97
-3.63
2.70
8.42
13.02
16.14
17.64
17.66
16.53
14.73
12.71
10.82
9.26
8.07
7.21
6.58
6.09
5.71
5.45
5.36
5.47
5.76
6.17
6.54
6.73
6.59
6.06
5.09
3.75
2.10
0.26
-1.66
-3.56
-5.34
-6.95
-8.44
-9.89
-11.42
-13.11
-15.00
-17.04
-19.17
-21.28
-23.27
-25.01
-26.29
-26.85
-26.36
-24.61
-21.51
-17.20
-12.04
-6.48
-0.96
4.17
8.65
12.32
15.06
16.83
17.59
17.43
16.52
15.16
13.69
12.41
11.51
11.03
10.88
10.88
10.87
10.76
10.52
10.14
9.63
8.92
7.93
6.66
5.13
3.46
1.80
0.23
-1.26
-2.79
-4.50
-6.55
-8.90
-11.43
-13.92
-16.13
-17.96
-19.38
-20.51
-21.56
-22.77
-24.30
-26.18
-28.21
-29.99
-31.01
-30.81
-29.05
-25.66
-20.83
-14.87
-8.23
-1.41
5.13
10.86
15.35
18.34
19.76
19.83
18.97
17.67
16.38
15.43
14.88
14.66
14.57
14.39
13.94
13.16
12.15
11.07
10.10
9.33
8.81
8.48
8.26
8.10
7.91
7.65
7.19
6.42
5.18
3.40
1.09
-1.60
-4.48
-7.31
-9.89
-12.10
-13.93
-15.49
-16.96
-18.54
-20.35
-22.37
-24.46
-26.40
-27.93
-28.76
-28.62
-27.23
-24.37
-19.99
-14.27
-7.75
-1.16
4.80
9.70
13.43
16.17
18.20
19.69
20.68
21.13
21.03
20.46
19.68
18.89
18.24
17.77
17.35
16.89
16.30
15.60
14.91
14.35
14.04
13.96
13.95
13.73
13.05
11.76
9.93
7.81
5.73
3.97
2.64
1.59
0.57
-0.77
-2.65
-5.09
-7.92
-10.85
-13.54
-15.80
-17.60
-19.12
-20.61
-22.32
-24.36
-26.65
-28.81
-30.30
-30.49
-28.91
-25.42
-20.32
-14.22
-7.89
-2.02
2.93
6.80
9.63
11.55
12.73
13.31
13.37
13.01
12.25
11.17
9.86
8.52
7.39
6.69
6.59
7.09
8.08
9.33
10.68
11.95
13.06
13.85
14.16
13.75
12.48
10.37
7.68
4.89
2.45
0.60
-0.72
-1.82
-3.07
-4.74
-6.86
-9.25
-11.67
-14.01
-16.32
-18.70
-21.25
-23.89
-26.37
-28.25
-29.10
-28.59
-26.56
-23.06
-18.34
-12.78
-6.88
-1.15
3.92
7.97
10.80
12.46
13.16
13.23
12.97
12.56
12.07
11.56
11.08
10.74
10.68
10.98
11.57
12.27
12.87
13.21
13.28
13.17
12.93
12.52
11.79
10.62
8.96
6.97
4.88
2.96
1.31
-0.12
-1.47
-2.92
-4.56
-6.40
-8.40
-10.52
-12.73
-15.01
-17.34
-19.61
-21.69
-23.34
-24.27
-24.18
-22.79
-19.98
-15.84
-10.75
-5.25
0.06
4.69
8.41
11.24
13.37
15.01
16.25
17.02
17.17
16.61
15.36
13.68
11.93
10.48
9.54
9.17
9.23
9.52
9.80
9.88
9.64
9.06
8.14
6.97
5.65
4.25
2.85
1.41
-0.12
-1.76
-3.56
-5.45
-7.39
-9.33
-11.21
-13.01
-14.75
-16.49
-18.31
-20.36
-22.73
-25.44
-28.31
-30.97
-32.82
-33.24
-31.75
-28.22
-22.92
-16.52
-9.74
-3.27
2.46
7.30
11.24
14.26
16.37
17.57
17.96
17.74
17.22
16.66
16.22
15.95
15.80
15.72
15.68
15.67
15.72
15.81
15.90
15.94
15.84
15.45
14.64
13.31
11.40
8.99
6.19
3.19
0.12
-2.87
-5.68
-8.18
-10.30
-12.01
-13.36
-14.50
-15.62
-16.88
-18.34
-20.02
-21.88
-23.80
-25.63
-27.08
-27.77
-27.24
-25.13
-21.30
-15.97
-9.69
-3.17
2.91
8.14
12.39
15.76
18.46
20.58
22.12
22.93
22.92
22.15
20.85
19.44
18.30
17.62
17.38
17.37
17.28
16.93
16.28
15.46
14.63
13.86
13.04
12.01
10.62
8.90
7.03
5.21
3.57
2.02
0.35
-1.64
-4.02
-6.63
-9.20
-11.48
-13.36
-14.84
-16.05
-17.14
-18.27
-19.64
-21.38
-23.54
-25.90
-27.98
-29.08
-28.54
-25.98
-21.49
-15.59
-9.06
-2.71
2.97
7.80
11.82
15.19
18.00
20.23
21.75
22.48
22.39
21.56
20.21
18.57
16.88
15.38
14.24
13.53
13.20
13.09
12.96
12.63
12.01
11.08
9.93
8.64
7.23
5.71
4.12
2.61
1.37
0.54
0.09
-0.22
-0.76
-1.88
-3.72
-6.14
-8.77
-11.17
-13.03
-14.32
-15.22
-16.08
-17.23
-18.87
-21.01
-23.41
-25.62
-27.09
-27.27
-25.78
-22.54
-17.84
-12.23
-6.39
-0.92
3.84
7.81
11.12
13.90
16.16
17.76
18.52
18.39
17.48
16.17
14.88
13.95
13.48
13.35
13.32
13.22
12.99
12.68
12.39
12.11
11.74
11.14
10.17
8.83
7.25
5.61
4.08
2.75
1.55
0.32
-1.10
-2.89
-5.09
-7.61
-10.27
-12.84
-15.10
-16.97
-18.49
-19.80
-21.11
-22.47
-23.83
-24.88
-25.24
-24.50
-22.46
-19.06
-14.50
-9.15
-3.42
2.24
7.41
11.75
15.01
17.09
18.05
18.07
17.37
16.21
14.81
13.35
11.99
10.81
9.93
9.39
9.19
9.27
9.55
9.88
10.17
10.32
10.28
10.05
9.53
8.65
7.31
5.50
3.29
0.85
-1.56
-3.80
-5.81
-7.71
-9.67
-11.82
-14.22
-16.81
-19.47
-21.98
-24.12
-25.67
-26.48
-26.49
-25.72
-24.26
-22.12
-19.25
-15.54
-10.98
-5.72
-0.21
4.97
9.33
12.60
14.85
16.33
17.35
18.07
18.53
18.70
18.53
18.05
17.29
16.37
15.34
14.31
13.41
12.73
12.39
12.35
12.50
12.60
12.48
12.02
11.17
9.95
8.37
6.50
4.43
2.32
0.36
-1.28
-2.58
-3.58
-4.48
-5.50
-6.79
-8.40
-10.31
-12.42
-14.65
-16.96
-19.35
-21.80
-24.25
-26.52
-28.29
-29.17
-28.78
-26.87
-23.37
-18.53
-12.80
-6.80
-1.17
3.59
7.27
9.91
11.78
13.14
14.15
14.79
14.95
14.57
13.76
12.76
11.89
11.34
11.17
11.28
11.55
11.86
12.17
12.47
12.73
12.82
12.57
11.88
10.71
9.18
7.45
5.67
3.95
2.30
0.67
-1.03
-2.85
-4.77
-6.72
-8.62
-10.43
-12.19
-13.94
-15.69
-17.37
-18.89
-20.22
-21.48
-22.91
-24.73
-26.92
-29.11
-30.62
-30.68
-28.78
-24.88
-19.36
-12.89
-6.18
0.24
6.02
10.94
14.83
17.58
19.13
19.62
19.32
18.53
17.51
16.38
15.16
13.87
12.60
11.50
10.78
10.59
10.94
11.66
12.54
13.32
13.79
13.87
13.52
12.77
11.68
10.35
8.87
7.34
5.85
4.47
3.16
1.79
0.21
-1.72
-4.00
-6.50
-8.98
-11.19
-12.95
-14.29
-15.34
-16.32
-17.45
-18.89
-20.73
-22.94
-25.35
-27.59
-29.15
-29.45
-28.06
-24.82
-20.00
-14.15
-7.96
-2.06
3.17
7.56
11.13
13.93
16.01
17.35
18.00
18.09
17.80
17.38
16.96
16.58
16.16
15.62
15.01
14.43
14.05
13.95
14.04
14.11
13.94
13.40
12.49
11.34
10.08
8.71
7.20
5.47
3.54
1.52
-0.40
-2.14
-3.77
-5.48
-7.47
-9.75
-12.15
-14.30
-15.96
-17.07
-17.84
-18.67
-19.87
-21.52
-23.39
-25.05
-25.98
-25.78
-24.23
-21.26
-16.96
-11.54
-5.40
0.89
6.67
11.34
14.55
16.29
16.88
16.74
16.26
15.61
14.80
13.80
12.62
11.37
10.25
9.46
9.12
9.27
9.89
10.85
11.96
12.92
13.41
13.20
12.16
10.36
8.02
5.40
2.75
0.27
-1.95
-3.86
-5.47
-6.79
-7.88
-8.75
-9.46
-10.17
-11.06
-12.34
-14.20
-16.64
-19.50
-22.43
-25.02
-26.88
-27.77
-27.53
-26.13
-23.58
-19.96
-15.43
-10.27
-4.83
0.47
5.31
9.44
12.71
15.04
16.40
16.77
16.21
14.94
13.25
11.57
10.24
9.47
9.28
9.53
9.98
10.39
10.66
10.73
10.65
10.50
10.29
9.99
9.44
8.47
6.94
4.82
2.28
-0.46
-3.09
-5.43
-7.40
-9.12
-10.76
-12.44
-14.16
-15.85
-17.41
-18.84
-20.24
-21.71
-23.32
-24.86
-25.85
-25.69
-23.82
-20.00
-14.47
-7.88
-1.02
5.33
10.68
14.85
17.92
20.14
21.71
22.76
23.39
23.77
23.82
23.43
22.61
21.63
21.08
21.51
23.20
26.03
29.63
32.87
34.77
34.87
33.65
32.34
32.05
33.19
35.35
37.72
38.54
36.48
31.06
23.41
15.75
10.14
7.42
6.80
6.19
1.57
-11.10
-34.89
-70.21
-114.93
-165.67
-219.16
-272.86
-316.15
-338.24
-331.75
-297.66
-244.04
-181.05
-116.95
-57.35
-5.90
35.18
62.33
75.09
73.29
58.86
36.41
12.61
-5.35
-11.36
-1.83
22.75
60.37
106.27
156.55
209.99
267.40
329.31
393.47
453.80
500.95
526.05
523.97
496.26
450.32
396.01
341.89
293.12
251.50
216.70
188.29
166.11
150.32
140.20
133.37
125.98
114.17
95.69
70.40
39.89
6.18
-28.86
-63.51
-95.86
-123.84
-145.73
-161.03
-170.62
-175.93
-177.62
-174.44
-163.78
-143.59
-114.67
-81.48
-50.57
-27.27
-12.66
-3.01
7.88
24.65
47.29
70.90
88.51
94.93
89.42
76.02
61.27
51.05
48.20
51.94
59.19
66.51
71.52
73.27
71.81
67.56
60.88
52.06
41.54
29.87
17.56
4.97
-7.92
-21.22
-34.77
-47.95
-59.74
-69.01
-75.11
-78.24
-79.52
-80.87
-84.76
-93.62
-109.30
-131.79
-158.09
-181.85
-194.45
-188.05
-159.23
-111.64
-55.80
-5.81
26.03
33.81
19.50
-8.87
-41.42
-70.74
-93.90
-111.74
-126.76
-140.94
-154.86
-168.10
-179.99
-190.10
-198.23
-203.56
-204.42
-198.68
-184.81
-163.19
-136.64
-109.90
-88.10
-74.63
-69.74
-70.37
-71.58
-68.62
-58.97
-43.18
-24.22
-6.08
8.01
16.61
20.09
20.06
18.94
19.18
22.47
29.03
37.36
44.57
47.57
44.57
35.84
23.57
10.43
-2.01
-14.22
-28.15
-46.08
-69.29
-97.44
-129.00
-162.03
-194.36
-223.35
-245.53
-256.92
-254.42
-237.13
-206.91
-167.80
-124.49
-80.76
-38.89
-0.24
33.78
61.13
79.44
87.08
84.03
71.98
53.41
30.30
3.29
-27.94
-63.70
-102.93
-142.43
-177.30
-202.32
-213.69
-210.53
-195.10
-171.84
-145.76
-120.76
-98.78
-79.70
-61.96
-43.47
-22.31
2.50
30.43
59.13
84.74
102.97
110.51
106.45
92.87
74.16
55.26
39.69
28.40
19.85
11.28
0.43
-13.21
-28.39
-42.80
-54.17
-61.00
-62.59
-58.63
-48.95
-33.68
-13.82
8.36
29.56
46.38
56.68
60.24
58.55
53.79
47.43
39.65
29.59
16.46
0.68
-15.59
-29.06
-36.58
-36.53
-29.39
-17.36
-3.14
11.32
25.33
39.21
53.33
67.30
79.63
88.19
91.15
87.97
79.88
69.46
59.76
53.13
50.41
50.83
52.61
53.91
53.61
51.72
49.06
46.72
45.52
45.66
46.83
48.42
49.79
50.46
50.29
49.35
47.78
45.49
42.04
36.78
29.31
19.84
9.28
-1.05
-9.93
-16.69
-21.12
-23.26
-23.14
-20.93
-17.33
-13.90
-12.69
-15.33
-21.95
-30.65
-38.15
-41.06
-37.38
-27.17
-12.44
3.76
18.44
29.46
35.81
37.36
34.68
28.76
20.98
12.88
5.84
0.73
-2.39
-4.24
-6.10
-9.23
-14.24
-20.79
-27.63
-32.95
-34.95
-32.41
-24.89
-12.82
2.56
19.44
35.87
50.13
61.09
68.33
71.76
71.49
67.58
60.22
50.29
39.64
30.91
26.70
28.27
34.74
43.25
50.00
51.70
46.75
35.28
18.62
-1.53
-23.54
-45.86
-66.63
-83.66
-94.85
-98.75
-95.25
-85.51
-71.35
-54.50
-36.00
-16.16
4.81
26.19
46.51
63.90
76.96
85.47
90.44
93.62
96.69
100.47
104.87
109.15
112.63
114.98
116.14
115.87
113.61
108.81
101.56
93.15
85.91
82.19
83.30
88.79
96.64
104.43
110.49
114.45
116.77
117.60
115.95
109.95
98.09
80.70
60.61
42.32
29.85
24.80
25.56
28.36
29.52
27.40
23.08
19.20
18.06
19.82
22.15
21.06
12.63
-5.18
-31.57
-62.76
-93.06
-115.94
-125.47
-117.56
-91.33
-50.16
-2.04
41.45
68.05
68.77
41.36
-8.00
-66.27
-118.15
-151.74
-163.09
-157.58
-147.29
-145.81
-162.23
-197.43
-243.76
-288.25
-317.78
-323.85
-305.09
-266.57
-216.59
-162.90
-110.47
-61.02
-14.38
30.13
72.92
114.01
153.00
188.65
218.39
238.28
244.01
232.72
204.65
163.60
116.06
69.40
29.97
1.95
-13.11
-16.13
-10.16
0.36
10.72
17.37
19.20
17.77
16.36
18.29
25.29
36.77
50.32
62.91
72.14
76.88
77.06
73.31
66.60
58.13
49.29
41.57
36.26
34.11
35.00
37.98
41.68
44.83
46.67
46.65
44.28
38.90
30.28
19.03
6.93
-3.58
-10.49
-13.21
-12.89
-11.67
-11.70
-13.93
-17.88
-22.37
-26.30
-29.43
-32.17
-34.94
-37.47
-38.98
-38.66
-36.37
-33.00
-30.12
-29.39
-31.70
-36.78
-43.19
-48.87
-51.82
-50.68
-45.15
-35.87
-24.15
-11.41
1.20
12.85
22.98
31.07
36.55
38.98
38.31
35.18
30.91
27.26
25.76
27.29
31.58
37.40
42.87
46.18
46.32
43.48
39.12
35.31
33.84
35.42
39.28
43.56
46.11
45.62
42.16
37.23
32.71
29.80
28.18
26.38
22.73
16.55
8.77
1.46
-3.21
-4.26
-2.48
0.01
0.88
-1.38
-7.12
-15.74
-26.11
-36.66
-45.96
-53.47
-59.96
-67.66
-80.01
-101.01
-134.17
-180.27
-235.57
-291.92
-338.58
-365.51
-366.25
-339.89
-291.48
-230.24
-165.10
-100.75
-37.45
26.34
90.73
152.42
205.41
242.95
259.25
251.62
221.27
171.97
108.59
37.29
-34.26
-95.67
-132.57
-137.76
-118.31
-90.39
-68.36
-58.61
-59.77
-67.12
-76.50
-86.42
-97.84
-112.14
-127.41
-139.60
-145.30
-143.28
-135.11
-123.82
-112.72
-104.29
-98.80
-93.48
-83.92
-68.75
-48.16
-24.33
-0.41
20.64
36.82
47.98
56.12
64.07
73.96
86.76
101.71
117.06
130.91
141.98
150.53
158.98
171.26
191.52
222.14
261.53
303.38
337.60
353.10
341.47
299.96
232.91
150.83
67.90
-1.76
-47.23
-62.90
-49.09
-11.53
40.06
94.05
139.34
167.73
175.45
163.55
136.74
101.38
63.50
27.10
-6.14
-36.26
-63.92
-89.39
-112.12
-131.02
-144.64
-151.59
-150.97
-142.86
-128.74
-111.32
-93.59
-77.70
-64.30
-52.59
-41.42
-30.34
-19.93
-11.21
-4.61
0.56
5.74
11.97
18.97
25.13
28.48
28.04
24.56
20.12
17.02
16.48
18.01
19.86
19.97
17.00
10.94
2.96
-5.28
-12.41
-17.84
-21.85
-25.25
-28.79
-32.75
-36.94
-40.90
-44.34
-47.38
-50.48
-54.13
-58.36
-62.61
-65.74
-66.57
-64.41
-59.36
-52.26
-44.23
-36.28
-28.90
-22.11
-15.64
-9.24
-2.87
3.22
8.64
12.98
15.99
17.64
18.16
17.89
17.24
16.52
15.98
15.84
16.27
17.43
19.35
21.87
24.52
26.73
28.00
28.11
27.21
25.60
23.49
20.90
17.66
13.62
8.88
3.72
-1.37
-6.02
-10.03
-13.39
-16.23
-18.80
-21.41
-24.45
-28.15
-32.40
-36.52
-39.37
-39.76
-36.94
-30.94
-22.61
-13.17
-3.67
5.24
13.34
20.54
26.55
30.97
33.42
33.93
33.03
31.57
30.27
29.51
29.17
28.81
28.02
26.61
24.68
22.57
20.65
19.23
18.47
18.36
18.71
19.18
19.29
18.64
17.01
14.42
11.05
7.14
2.88
-1.73
-6.65
-11.81
-16.97
-21.79
-26.02
-29.64
-32.87
-36.10
-39.71
-43.89
-48.60
-53.47
-57.83
-60.73
-61.08
-57.91
-50.77
-40.04
-26.91
-13.15
-0.53
9.72
17.18
22.15
25.36
27.53
29.17
30.56
31.77
32.85
33.83
34.70
35.38
35.83
36.10
36.25
36.42
36.68
36.99
37.25
37.28
36.83
35.79
34.12
31.96
29.53
27.09
24.80
22.68
20.53
18.03
14.85
10.85
6.15
1.14
-3.72
-8.09
-11.83
-15.05
-17.91
-20.63
-23.28
-25.84
-28.19
-30.03
-30.97
-30.46
-28.02
-23.36
-16.62
-8.46
0.16
8.24
15.01
20.15
23.71
25.99
27.32
27.87
27.65
26.72
25.24
23.54
22.05
21.07
20.70
20.84
21.26
21.84
22.62
23.73
25.26
27.07
28.72
29.64
29.34
27.61
24.65
21.00
17.30
14.06
11.55
9.63
7.91
6.00
3.65
0.90
-1.98
-4.75
-7.31
-9.88
-12.86
-16.64
-21.36
-26.81
-32.38
-37.23
-40.53
-41.61
-40.14
-36.18
-30.10
-22.48
-14.03
-5.47
2.58
9.54
15.04
18.91
21.28
22.49
23.06
23.41
23.72
23.93
23.75
23.03
21.79
20.33
19.05
18.22
17.86
17.77
17.64
17.28
16.73
16.10
15.55
15.11
14.65
13.98
12.89
11.24
8.98
6.16
2.97
-0.36
-3.54
-6.35
-8.75
-10.89
-13.09
-15.67
-18.87
-22.71
-26.96
-31.19
-34.78
-37.06
-37.36
-35.26
-30.70
-24.04
-16.01
-7.47
0.74
8.00
13.89
18.22
21.01
22.39
22.59
21.94
20.74
19.20
17.45
15.54
13.57
11.76
10.39
9.70
9.85
10.75
12.18
13.84
15.45
16.80
17.73
18.15
17.99
17.23
15.96
14.31
12.38
10.20
7.72
4.84
1.54
-2.06
-5.73
-9.17
-12.14
-14.50
-16.34
-17.85
-19.32
-21.02
-23.18
-25.86
-28.96
-32.11
-34.73
-36.13
-35.72
-33.16
-28.45
-21.97
-14.35
-6.31
1.44
8.35
14.07
18.41
21.32
22.92
23.40
23.10
22.34
21.41
20.49
19.68
19.00
18.44
18.06
17.91
18.05
18.45
19.05
19.68
20.12
20.14
19.57
18.32
16.42
14.07
11.55
9.21
7.28
5.81
4.62
3.38
1.81
-0.29
-2.88
-5.75
-8.58
-11.07
-13.11
-14.70
-16.08
-17.52
-19.33
-21.66
-24.53
-27.68
-30.63
-32.78
-33.57
-32.63
-29.91
-25.66
-20.39
-14.72
-9.16
-4.08
0.38
4.15
7.23
9.58
11.16
11.99
12.17
11.91
11.43
10.93
10.54
10.30
10.22
10.21
10.16
10.00
9.69
9.30
8.99
8.90
9.05
9.30
9.40
9.07
8.21
6.95
5.57
4.31
3.27
2.33
1.27
-0.10
-1.81
-3.74
-5.65
-7.42
-8.99
-10.49
-12.00
-13.54
-15.07
-16.54
-17.95
-19.41
-20.98
-22.49
-23.53
-23.52
-21.96
-18.69
-14.04
-8.66
-3.30
1.50
5.55
8.88
11.61
13.78
15.34
16.21
16.37
15.90
14.95
13.71
12.36
11.04
9.88
8.98
8.45
8.33
8.58
9.11
9.71
10.19
10.36
10.11
9.35
8.11
6.44
4.49
2.40
0.35
-1.48
-3.00
-4.21
-5.29
-6.46
-7.94
-9.78
-11.85
-13.86
-15.53
-16.72
-17.50
-18.12
-18.89
-20.05
-21.63
-23.46
-25.13
-26.16
-26.13
-24.77
-22.03
-18.19
-13.66
-8.90
-4.32
-0.19
3.36
6.28
8.52
10.03
10.73
10.62
9.78
8.44
6.87
5.36
4.11
3.27
2.89
2.98
3.51
4.33
5.25
6.02
6.46
6.53
6.29
5.86
5.30
4.59
3.59
2.18
0.34
-1.80
-4.04
-6.22
-8.24
-10.07
-11.69
-13.13
-14.42
-15.58
-16.72
-17.95
-19.41
-21.10
-22.90
-24.51
-25.55
-25.63
-24.45
-21.86
-17.96
-13.10
-7.75
-2.43
2.37
6.34
9.33
11.35
12.50
12.92
12.76
12.20
11.34
10.27
9.03
7.66
6.22
4.79
3.48
2.41
1.66
1.21
0.92
0.65
0.24
-0.37
-1.19
-2.17
-3.30
-4.64
-6.20
-7.99
-9.95
-12.00
-14.08
-16.16
-18.33
-20.64
-23.17
-25.86
-28.54
-31.08
-33.42
-35.64
-37.89
-40.26
-42.68
-44.87
-46.36
-46.55
-44.97
-41.41
-35.98
-29.11
-21.46
-13.72
-6.48
-0.08
5.31
9.70
13.11
15.57
17.10
17.77
17.73
17.28
16.72
16.30
16.13
16.17
16.26
16.18
15.81
15.16
14.34
13.55
12.92
12.46
12.04
11.47
10.55
9.22
7.54
5.58
3.45
1.16
-1.37
-4.18
-7.25
-10.42
-13.36
-15.77
-17.48
-18.52
-19.08
-19.46
-19.89
-20.47
-21.11
-21.61
-21.66
-20.99
-19.31
-16.46
-12.36
-7.13
-1.06
5.35
11.59
17.23
21.99
25.81
28.72
30.75
31.94
32.28
31.81
30.72
29.21
27.47
25.73
24.06
22.52
21.19
20.22
19.76
19.91
20.53
21.30
21.79
21.68
20.87
19.55
18.03
16.59
15.37
14.38
13.52
12.70
11.85
10.85
9.56
7.80
5.43
2.43
-1.10
-5.01
-9.14
-13.47
-17.99
-22.61
-27.19
-31.41
-34.86
-37.12
-37.86
-36.93
-34.40
-30.56
-25.81
-20.63
-15.45
-10.54
-6.08
-2.15
1.22
3.96
6.02
7.40
8.23
8.67
8.96
9.27
9.69
10.26
11.00
11.97
13.26
14.88
16.75
18.66
20.37
21.68
22.53
22.95
23.01
22.73
22.07
21.00
19.54
17.74
15.71
13.52
11.16
8.62
5.91
3.15
0.51
-1.88
-4.09
-6.39
-9.09
-12.38
-16.11
-19.79
-22.77
-24.44
-24.44
-22.76
-19.62
-15.36
-10.38
-5.11
-0.02
4.45
7.99
10.49
12.00
12.71
12.76
12.21
11.06
9.31
7.15
4.92
3.08
2.06
2.10
3.19
4.99
7.00
8.68
9.64
9.77
9.21
8.27
7.30
6.53
5.99
5.54
4.91
3.85
2.20
-0.01
-2.64
-5.48
-8.40
-11.38
-14.54
-18.01
-21.83
-25.82
-29.63
-32.81
-34.95
-35.70
-34.87
-32.36
-28.25
-22.77
-16.31
-9.33
-2.33
4.27
10.16
15.21
19.39
22.76
25.36
27.20
28.28
28.58
28.15
27.16
25.88
24.68
23.87
23.61
23.88
24.47
25.13
25.53
25.43
24.63
23.10
20.97
18.46
15.85
13.31
10.84
8.34
5.65
2.69
-0.45
-3.59
-6.49
-8.98
-10.99
-12.56
-13.83
-15.00
-16.32
-18.03
-20.25
-22.94
-25.82
-28.49
-30.50
-31.48
-31.23
-29.75
-27.22
-23.92
-20.21
-16.39
-12.68
-9.19
-5.88
-2.69
0.43
3.48
6.40
9.15
11.73
14.12
16.30
18.18
19.61
20.48
20.75
20.57
20.20
19.96
20.08
20.65
21.53
22.41
22.93
22.77
21.78
19.96
17.48
14.53
11.35
8.08
4.76
1.32
-2.34
-6.30
-10.56
-15.00
-19.43
-23.68
-27.65
-31.29
-34.61
-37.60
-40.33
-42.86
-45.35
-47.90
-50.43
-52.49
-53.41
-52.41
-48.95
-43.02
-35.14
-26.24
-17.27
-9.00
-1.83
4.07
8.71
12.19
14.69
16.44
17.78
19.01
20.34
21.72
22.95
23.73
23.94
23.65
23.11
22.67
22.55
22.85
23.42
24.00
24.26
23.94
22.94
21.32
19.31
17.14
14.99
12.90
10.82
8.63
6.25
3.67
0.97
-1.81
-4.67
-7.71
-11.01
-14.63
-18.56
-22.70
-26.94
-31.14
-35.21
-38.98
-42.16
-44.35
-45.02
-43.75
-40.39
-35.14
-28.57
-21.35
-14.16
-7.45
-1.45
3.81
8.30
12.05
15.05
17.35
19.10
20.50
21.70
22.75
23.61
24.15
24.33
24.21
23.97
23.79
23.76
23.73
23.37
22.39
20.62
18.22
15.57
13.03
10.79
8.77
6.74
4.52
2.20
0.03
-1.70
-2.86
-3.66
-4.48
-5.64
-7.21
-8.98
-10.62
-11.93
-13.02
-14.16
-15.66
-17.51
-19.37
-20.57
-20.47
-18.71
-15.35
-10.80
-5.70
-0.66
3.88
7.68
10.67
12.97
14.74
16.09
17.06
17.57
17.47
16.64
15.11
13.06
10.78
8.50
6.33
4.22
2.12
0.03
-1.94
-3.56
-4.69
-5.26
-5.41
-5.37
-5.37
-5.48
-5.59
-5.48
-4.90
-3.74
-2.07
-0.17
1.64
3.08
4.00
4.41
4.42
4.19
3.87
3.53
3.15
2.59
1.64
0.08
-2.16
-4.94
-7.88
-10.39
-11.93
-12.07
-10.68
-7.91
-4.09
0.29
4.75
8.82
12.21
14.77
16.55
17.69
18.36
18.69
18.66
18.23
17.33
15.95
14.15
12.11
10.00
8.04
6.43
5.27
4.57
4.27
4.17
4.01
3.57
2.75
1.65
0.47
-0.55
-1.33
-1.97
-2.77
-4.05
-6.04
-8.75
-12.01
-15.51
-19.03
-22.32
-25.22
-27.65
-29.54
-30.92
-31.93
-32.78
-33.63
-34.50
-35.17
-35.23
-34.26
-31.90
-28.02
-22.71
-16.26
-9.06
-1.56
5.85
12.89
19.33
25.08
30.07
34.23
37.47
39.75
41.02
41.36
40.93
39.88
38.42
36.72
34.87
32.96
30.98
28.86
26.52
23.92
21.15
18.39
15.88
13.72
11.83
9.93
7.73
5.03
1.92
-1.33
-4.38
-7.02
-9.23
-11.18
-13.13
-15.32
-17.88
-20.79
-23.86
-26.79
-29.29
-31.22
-32.65
-33.84
-35.10
-36.58
-38.12
-39.30
-39.50
-38.21
-35.20
-30.53
-24.59
-17.91
-11.06
-4.60
1.00
5.43
8.60
10.62
11.78
12.31
12.40
12.11
11.50
10.71
9.94
9.41
9.19
9.22
9.34
9.39
9.28
9.03
8.68
8.24
7.65
6.88
5.95
4.96
3.99
3.08
2.15
1.11
-0.11
-1.47
-2.88
-4.24
-5.60
-7.05
-8.71
-10.62
-12.74
-14.95
-17.20
-19.46
-21.69
-23.70
-25.10
-25.39
-24.14
-21.25
-16.99
-11.90
-6.59
-1.54
2.99
6.92
10.16
12.62
14.26
15.10
15.33
15.19
14.96
14.76
14.63
14.47
14.20
13.78
13.22
12.62
12.08
11.70
11.51
11.41
11.24
10.79
9.93
8.66
7.08
5.30
3.44
1.54
-0.40
-2.35
-4.26
-6.16
-8.14
-10.34
-12.84
-15.61
-18.47
-21.22
-23.79
-26.28
-28.81
-31.30
-33.43
-34.59
-34.19
-31.89
-27.75
-22.21
-15.84
-9.24
-2.87
2.92
7.85
11.74
14.49
16.13
16.87
16.93
16.57
15.98
15.37
14.90
14.70
14.75
14.91
14.95
14.65
13.92
12.89
11.82
10.99
10.55
10.40
10.29
9.94
9.19
8.09
6.82
5.59
4.49
3.43
2.25
0.73
-1.16
-3.33
-5.60
-7.75
-9.70
-11.46
-13.14
-14.86
-16.73
-18.78
-20.87
-22.81
-24.23
-24.77
-24.10
-22.02
-18.55
-13.93
-8.54
-2.87
2.57
7.36
11.20
13.97
15.72
16.61
16.86
16.67
16.18
15.46
14.66
13.87
13.24
12.85
12.74
12.82
13.01
13.20
13.34
13.46
13.60
13.77
13.92
13.88
13.52
12.72
11.48
9.90
8.11
6.18
4.12
1.86
-0.66
-3.43
-6.31
-9.08
-11.57
-13.62
-15.21
-16.40
-17.33
-18.23
-19.38
-21.00
-23.14
-25.59
-27.78
-29.08
-28.87
-26.84
-23.10
-18.11
-12.57
-7.12
-2.24
1.83
5.08
7.65
9.67
11.21
12.27
12.77
12.64
11.95
10.86
9.61
8.49
7.72
7.43
7.64
8.25
9.09
9.97
10.74
11.29
11.59
11.64
11.37
10.74
9.70
8.32
6.74
5.11
3.49
1.76
-0.36
-3.08
-6.37
-9.89
-13.07
-15.38
-16.48
-16.45
-15.74
-14.95
-14.66
-15.20
-16.70
-19.01
-21.84
-24.71
-27.07
-28.33
-28.06
-26.11
-22.61
-17.98
-12.77
-7.49
-2.48
2.05
5.99
9.29
11.86
13.62
14.60
14.93
14.84
14.52
14.08
13.50
12.76
11.86
10.94
10.28
10.14
10.65
11.69
12.92
13.89
14.24
13.80
12.68
11.16
9.56
8.14
6.94
5.86
4.67
3.20
1.33
-0.89
-3.31
-5.75
-8.00
-9.97
-11.59
-12.95
-14.21
-15.58
-17.28
-19.42
-21.94
-24.54
-26.75
-28.04
-27.97
-26.36
-23.25
-18.91
-13.79
-8.41
-3.24
1.30
4.96
7.68
9.54
10.67
11.19
11.16
10.59
9.57
8.22
6.79
5.55
4.71
4.33
4.33
4.54
4.79
4.94
4.94
4.80
4.53
4.13
3.55
2.80
1.85
0.72
-0.66
-2.35
-4.45
-6.99
-9.93
-13.05
-16.09
-18.80
-21.10
-23.04
-24.79
-26.48
-28.19
-29.92
-31.61
-33.26
-34.89
-36.38
-37.47
-37.67
-36.42
-33.41
-28.65
-22.61
-15.99
-9.55
-3.71
1.42
5.98
10.23
14.30
18.13
21.59
24.49
26.74
28.36
29.46
30.16
30.62
30.95
31.21
31.44
31.64
31.78
31.80
31.61
31.06
30.04
28.49
26.48
24.21
21.92
19.83
18.00
16.29
14.48
12.38
9.92
7.13
4.10
0.92
-2.41
-5.84
-9.30
-12.64
-15.71
-18.47
-20.97
-23.40
-25.91
-28.47
-30.85
-32.60
-33.15
-32.08
-29.14
-24.42
-18.30
-11.38
-4.39
2.03
7.45
11.69
14.81
16.98
18.36
19.07
19.18
18.81
18.12
17.31
16.55
15.89
15.31
14.73
14.07
13.37
12.70
12.11
11.60
11.07
10.38
9.39
8.03
6.32
4.34
2.19
-0.05
-2.31
-4.62
-7.07
-9.75
-12.70
-15.94
-19.41
-23.01
-26.72
-30.43
-34.06
-37.52
-40.72
-43.68
-46.47
-49.18
-51.69
-53.65
-54.43
-53.33
-49.83
-43.80
-35.62
-26.05
-15.97
-6.20
2.70
10.38
16.73
21.74
25.49
28.11
29.79
30.79
31.38
31.80
32.20
32.60
32.95
33.18
33.21
33.02
32.64
32.14
31.59
30.99
30.30
29.41
28.26
26.79
25.06
23.11
20.98
18.66
16.12
13.30
10.22
6.97
3.69
0.51
-2.51
-5.43
-8.34
-11.35
-14.53
-17.95
-21.61
-25.41
-29.10
-32.20
-34.11
-34.25
-32.26
-28.16
-22.39
-15.70
-8.92
-2.73
2.46
6.52
9.51
11.52
12.67
13.02
12.68
11.86
10.83
9.92
9.37
9.25
9.51
10.02
10.67
11.40
12.19
12.97
13.62
13.97
13.87
13.31
12.34
11.10
9.69
8.18
6.52
4.65
2.53
0.12
-2.53
-5.35
-8.24
-11.06
-13.75
-16.35
-18.96
-21.72
-24.67
-27.61
-30.07
-31.40
-30.96
-28.32
-23.47
-16.80
-9.07
-1.17
6.09
12.09
16.57
19.51
21.09
21.58
21.19
20.07
18.36
16.19
13.72
11.15
8.65
6.32
4.26
2.56
1.26
0.41
-0.06
-0.28
-0.46
-0.74
-1.23
-1.94
-2.81
-3.79
-4.85
-5.95
-7.01
-7.93
-8.59
-8.96
-9.10
-9.21
-9.49
-10.10
-11.06
-12.22
-13.45
-14.59
-15.61
-16.45
-17.03
-17.11
-16.22
-13.92
-9.86
-4.05
3.14
10.97
18.62
25.34
30.66
34.48
36.85
37.98
37.99
36.98
34.99
32.19
28.86
25.38
22.18
19.59
17.78
16.72
16.20
15.92
15.53
14.78
13.51
11.71
9.48
6.99
4.46
2.08
0.02
-1.68
-3.11
-4.43
-5.82
-7.39
-9.11
-10.86
-12.53
-14.16
-15.90
-17.95
-20.47
-23.47
-26.86
-30.52
-34.25
-37.72
-40.40
-41.52
-40.32
-36.31
-29.54
-20.64
-10.65
-0.63
8.64
16.74
23.63
29.33
33.82
37.00
38.86
39.53
39.31
38.58
37.67
36.80
36.01
35.28
34.63
34.06
33.60
33.22
32.88
32.50
31.95
31.08
29.66
27.53
24.56
20.83
16.56
12.10
7.76
3.77
0.16
-3.18
-6.32
-9.30
-12.04
-14.47
-16.53
-18.37
-20.21
-22.37
-25.07
-28.34
-31.97
-35.44
-38.05
-39.07
-37.94
-34.41
-28.68
-21.29
-13.04
-4.80
2.68
8.94
13.76
17.18
19.40
20.67
21.16
21.00
20.27
19.07
17.62
16.14
14.92
14.12
13.81
13.88
14.21
14.66
15.09
15.44
15.56
15.31
14.58
13.31
11.54
9.44
7.20
4.95
2.77
0.64
-1.49
-3.66
-5.87
-8.09
-10.29
-12.44
-14.52
-16.59
-18.74
-21.06
-23.55
-26.08
-28.29
-29.74
-29.88
-28.31
-24.84
-19.60
-13.04
-5.82
1.30
7.71
12.98
17.01
19.89
21.74
22.66
22.66
21.74
20.07
17.92
15.67
13.73
12.31
11.48
11.10
11.01
11.01
10.97
10.74
10.21
9.30
8.04
6.57
5.08
3.70
2.45
1.19
-0.33
-2.30
-4.71
-7.38
-9.99
-12.23
-13.96
-15.18
-16.04
-16.72
-17.41
-18.27
-19.48
-21.16
-23.30
-25.72
-27.97
-29.44
-29.54
-27.83
-24.22
-19.03
-12.88
-6.48
-0.55
4.47
8.37
11.20
13.14
14.37
15.01
15.07
14.59
13.63
12.40
11.16
10.15
9.50
9.15
8.95
8.69
8.23
7.57
6.87
6.30
5.97
5.81
5.55
4.86
3.52
1.57
-0.71
-2.92
-4.76
-6.18
-7.36
-8.62
-10.18
-12.05
-14.04
-15.90
-17.45
-18.59
-19.35
-19.78
-19.94
-19.89
-19.76
-19.66
-19.68
-19.80
-19.84
-19.52
-18.52
-16.53
-13.37
-9.02
-3.67
2.29
8.32
13.90
18.61
22.25
24.90
26.71
27.88
28.50
28.59
28.11
27.11
25.73
24.18
22.61
21.08
19.59
18.07
16.54
15.05
13.77
12.76
12.01
11.39
10.69
9.74
8.47
6.90
5.12
3.25
1.44
-0.20
-1.58
-2.71
-3.70
-4.75
-6.07
-7.73
-9.69
-11.76
-13.77
-15.59
-17.22
-18.74
-20.24
-21.81
-23.44
-25.10
-26.64
-27.78
-28.15
-27.35
-25.05
-21.22
-16.13
-10.32
-4.44
0.89
5.24
8.43
10.53
11.76
12.40
12.70
12.80
12.76
12.54
12.12
11.52
10.83
10.15
9.57
9.18
8.97
8.96
9.16
9.57
10.17
10.86
11.42
11.55
11.01
9.72
7.82
5.61
3.50
1.78
0.54
-0.36
-1.23
-2.35
-3.87
-5.74
-7.75
-9.63
-11.20
-12.43
-13.44
-14.46
-15.71
-17.34
-19.34
-21.62
-23.92
-25.86
-26.94
-26.66
-24.65
-20.86
-15.62
-9.62
-3.72
1.32
5.06
7.46
8.81
9.49
9.83
9.99
9.90
9.45
8.57
7.39
6.18
5.26
4.83
4.92
5.37
5.88
6.27
6.41
6.31
6.00
5.48
4.70
3.64
2.31
0.85
-0.55
-1.70
-2.61
-3.39
-4.28
-5.46
-6.93
-8.49
-9.86
-10.81
-11.32
-11.61
-12.07
-13.04
-14.73
-17.12
-19.93
-22.79
-25.18
-26.65
-26.85
-25.61
-23.04
-19.42
-15.17
-10.70
-6.36
-2.40
1.01
3.71
5.63
6.72
7.08
6.93
6.54
6.18
6.03
6.16
6.47
6.85
7.16
7.35
7.50
7.74
8.16
8.78
9.50
10.11
10.45
10.47
10.23
9.87
9.45
8.94
8.19
7.00
5.28
3.11
0.72
-1.62
-3.67
-5.35
-6.68
-7.75
-8.70
-9.63
-10.61
-11.66
-12.75
-13.83
-14.88
-15.86
-16.75
-17.53
-18.18
-18.72
-19.24
-19.89
-20.88
-22.39
-24.47
-26.91
-29.28
-31.01
-31.55
-30.57
-28.04
-24.22
-19.56
-14.61
-9.80
-5.44
-1.60
1.68
4.45
6.77
8.65
10.18
11.43
12.48
13.32
13.92
14.18
14.06
13.70
13.37
13.42
14.09
15.35
17.00
18.69
20.11
21.07
21.52
21.53
21.20
20.59
19.74
18.62
17.23
15.61
13.86
12.15
10.59
9.21
7.91
6.47
4.71
2.53
0.05
-2.56
-5.15
-7.71
-10.37
-13.23
-16.19
-18.88
-20.70
-21.04
-19.52
-16.17
-11.34
-5.73
-0.02
5.20
9.56
12.86
15.09
16.28
16.48
15.81
14.43
12.58
10.54
8.60
6.95
5.69
4.79
4.23
3.91
3.77
3.71
3.58
3.23
2.56
1.60
0.51
-0.49
-1.18
-1.49
-1.51
-1.50
-1.76
-2.49
-3.72
-5.34
-7.14
-8.92
-10.62
-12.19
-13.70
-15.24
-16.83
-18.49
-20.26
-22.11
-23.95
-25.50
-26.26
-25.70
-23.42
-19.34
-13.79
-7.47
-1.16
4.53
9.22
12.82
15.39
16.99
17.67
17.36
16.03
13.75
10.71
7.28
3.90
1.01
-1.10
-2.33
-2.84
-2.93
-2.87
-2.87
-2.97
-3.08
-3.08
-2.83
-2.22
-1.26
-0.13
0.87
1.22
0.41
-1.88
-5.64
-10.41
-15.44
-19.94
-23.35
-25.56
-26.93
-28.02
-29.31
-30.97
-32.74
-34.10
-34.42
-33.26
-30.41
-26.03
-20.44
-14.06
-7.34
-0.72
5.38
10.57
14.61
17.49
19.43
20.82
22.04
23.22
24.23
24.72
24.41
23.26
21.61
20.04
19.10
19.05
19.74
20.74
21.59
22.00
21.93
21.50
20.79
19.74
18.18
15.99
13.17
9.95
6.63
3.44
0.46
-2.33
-5.02
-7.63
-10.12
-12.48
-14.75
-17.08
-19.53
-21.98
-24.04
-25.17
-24.84
-22.72
-18.85
-13.58
-7.52
-1.28
4.61
9.75
13.96
17.19
19.51
21.02
21.83
22.00
21.65
20.91
19.99
19.16
18.64
18.56
18.89
19.49
20.17
20.78
21.22
21.39
21.20
20.53
19.30
17.56
15.44
13.16
10.91
8.82
6.87
5.00
3.10
1.08
-1.13
-3.56
-6.23
-9.14
-12.23
-15.42
-18.66
-21.90
-25.06
-27.94
-30.15
-31.25
-30.77
-28.46
-24.41
-19.02
-12.93
-6.80
-1.14
3.75
7.78
11.03
13.60
15.63
17.19
18.31
19.01
19.30
19.22
18.85
18.35
17.92
17.70
17.79
18.16
18.64
18.99
19.03
18.64
17.86
16.80
15.62
14.44
13.29
12.16
10.96
9.57
7.88
5.79
3.24
0.28
-2.96
-6.24
-9.25
-11.79
-13.80
-15.44
-17.09
-19.14
-21.87
-25.26
-28.95
-32.28
-34.52
-35.06
-33.56
-30.05
-24.87
-18.56
-11.74
-5.00
1.20
6.58
11.04
14.60
17.35
19.36
20.67
21.29
21.31
20.84
20.11
19.31
18.54
17.82
17.09
16.31
15.52
14.76
14.08
13.49
12.97
12.44
11.89
11.34
10.81
10.30
9.79
9.17
8.30
7.02
5.17
2.73
-0.21
-3.40
-6.46
-9.05
-10.97
-12.28
-13.26
-14.33
-15.85
-18.08
-21.02
-24.39
-27.72
-30.32
-31.48
-30.64
-27.61
-22.62
-16.34
-9.64
-3.29
2.14
6.45
9.66
11.89
13.32
14.10
14.37
14.29
14.00
13.55
12.96
12.25
11.49
10.84
10.52
10.67
11.29
12.23
13.21
13.94
14.23
13.98
13.24
12.13
10.80
9.40
8.01
6.64
5.25
3.77
2.10
0.25
-1.77
-3.83
-5.82
-7.67
-9.39
-11.10
-12.94
-15.05
-17.42
-19.88
-22.10
-23.64
-24.10
-23.22
-20.91
-17.30
-12.70
-7.52
-2.27
2.57
6.63
9.73
11.89
13.31
14.21
14.69
14.81
14.53
13.88
13.00
12.13
11.47
11.12
11.06
11.19
11.45
11.81
12.28
12.83
13.34
13.62
13.45
12.74
11.47
9.77
7.80
5.70
3.56
1.37
-0.86
-3.14
-5.37
-7.47
-9.33
-10.91
-12.24
-13.45
-14.75
-16.31
-18.23
-20.49
-22.89
-25.10
-26.66
-27.09
-26.01
-23.29
-19.10
-13.92
-8.39
-3.10
1.58
5.54
8.82
11.52
13.68
15.22
16.06
16.14
15.56
14.50
13.18
11.84
10.71
9.96
9.68
9.86
10.35
10.92
11.35
11.48
11.28
10.80
10.09
9.22
8.23
7.16
6.06
5.02
4.03
3.08
2.04
0.78
-0.80
-2.72
-4.91
-7.20
-9.42
-11.43
-13.20
-14.78
-16.34
-18.07
-20.05
-22.19
-24.19
-25.62
-26.05
-25.17
-22.90
-19.38
-14.96
-10.07
-5.18
-0.67
3.19
6.25
8.48
9.95
10.76
11.08
11.06
10.84
10.51
10.16
9.80
9.43
9.02
8.62
8.28
8.12
8.23
8.63
9.27
10.02
10.76
11.32
11.62
11.53
10.99
9.93
8.37
6.44
4.41
2.54
1.00
-0.27
-1.49
-2.96
-4.84
-7.02
-9.18
-10.98
-12.25
-13.14
-14.08
-15.50
-17.59
-20.14
-22.63
-24.39
-24.88
-23.85
-21.34
-17.60
-13.00
-7.94
-2.81
2.01
6.18
9.48
11.83
13.29
14.06
14.28
14.06
13.44
12.48
11.26
9.95
8.76
7.85
7.30
7.04
7.03
7.17
7.43
7.73
8.00
8.09
7.84
7.17
6.11
4.83
3.55
2.44
1.57
0.88
0.22
-0.56
-1.62
-3.07
-4.89
-6.94
-8.98
-10.74
-12.03
-12.83
-13.35
-13.93
-14.95
-16.61
-18.85
-21.26
-23.26
-24.25
-23.82
-21.85
-18.52
-14.25
-9.61
-5.07
-1.05
2.25
4.73
6.38
7.23
7.34
6.78
5.69
4.28
2.86
1.71
1.07
0.98
1.38
2.09
2.98
3.93
4.88
5.75
6.46
6.93
7.10
7.01
6.76
6.42
5.98
5.38
4.50
3.37
2.09
0.81
-0.31
-1.23
-2.00
-2.76
-3.61
-4.61
-5.77
-7.14
-8.76
-10.66
-12.68
-14.43
-15.37
-14.98
-13.03
-9.66
-5.43
-1.02
2.92
5.99
8.04
9.14
9.45
9.10
8.33
7.33
6.28
5.27
4.35
3.48
2.70
2.09
1.74
1.73
2.08
2.69
3.47
4.30
5.02
5.54
5.69
5.38
4.58
3.41
2.05
0.69
-0.66
-2.11
-3.84
-6.01
-8.56
-11.28
-13.89
-16.11
-17.81
-19.11
-20.19
-21.26
-22.41
-23.66
-24.92
-26.19
-27.43
-28.55
-29.32
-29.33
-28.08
-25.27
-20.98
-15.68
-10.12
-5.02
-0.82
2.43
4.96
7.07
8.94
10.57
11.89
12.79
13.30
13.48
13.43
13.25
13.02
12.80
12.62
12.48
12.36
12.22
12.04
11.81
11.52
11.18
10.72
10.07
9.20
8.12
6.94
5.83
4.86
3.99
3.03
1.71
-0.15
-2.54
-5.20
-7.73
-9.77
-11.17
-12.04
-12.69
-13.53
-14.82
-16.58
-18.59
-20.38
-21.41
-21.21
-19.53
-16.46
-12.36
-7.78
-3.29
0.65
3.85
6.22
7.82
8.74
9.09
8.97
8.55
8.07
7.68
7.51
7.61
7.92
8.36
8.84
9.35
9.93
10.65
11.52
12.45
13.24
13.63
13.35
12.32
10.65
8.65
6.65
4.86
3.27
1.73
0.06
-1.78
-3.60
-5.18
-6.33
-7.10
-7.73
-8.57
-9.84
-11.58
-13.59
-15.58
-17.24
-18.32
-18.60
-17.84
-15.81
-12.39
-7.67
-2.00
4.08
9.91
14.95
18.86
21.55
23.14
23.87
23.94
23.46
22.49
21.07
19.30
17.36
15.51
14.01
13.04
12.60
12.52
12.58
12.55
12.32
11.91
11.38
10.78
10.10
9.26
8.11
6.60
4.77
2.79
0.89
-0.77
-2.18
-3.46
-4.78
-6.27
-7.97
-9.86
-11.91
-14.15
-16.68
-19.52
-22.47
-25.07
-26.67
-26.65
-24.71
-20.94
-15.84
-10.08
-4.35
0.90
5.35
8.87
11.35
12.76
13.11
12.57
11.40
9.93
8.53
7.43
6.72
6.30
6.03
5.77
5.52
5.36
5.39
5.61
5.92
6.08
5.89
5.23
4.13
2.73
1.15
-0.60
-2.51
-4.60
-6.85
-9.20
-11.56
-13.86
-16.05
-18.10
-20.01
-21.80
-23.51
-25.16
-26.65
-27.72
-27.95
-26.92
-24.34
-20.22
-14.85
-8.74
-2.45
3.51
8.76
13.04
16.27
18.53
19.97
20.85
21.32
21.44
21.19
20.51
19.47
18.31
17.38
16.99
17.26
18.06
19.06
19.88
20.23
20.00
19.29
18.25
16.98
15.45
13.58
11.27
8.56
5.58
2.57
-0.22
-2.65
-4.71
-6.51
-8.24
-10.14
-12.33
-14.88
-17.70
-20.56
-23.21
-25.35
-26.72
-27.12
-26.37
-24.30
-20.86
-16.20
-10.68
-4.83
0.81
5.83
10.04
13.42
16.07
18.04
19.35
19.96
19.87
19.17
18.01
16.64
15.27
14.06
13.08
12.34
11.79
11.38
11.06
10.79
10.53
10.20
9.70
8.90
7.68
6.00
3.89
1.44
-1.28
-4.19
-7.26
-10.52
-13.96
-17.50
-20.90
-23.81
-25.89
-27.04
-27.46
-27.65
-28.16
-29.25
-30.68
-31.57
-30.81
-27.36
-20.80
-11.55
-0.76
10.07
19.67
27.42
33.54
38.81
44.20
50.25
56.82
63.04
67.81
70.26
70.20
68.34
66.09
65.11
66.65
70.89
76.56
81.12
81.46
75.07
61.26
41.58
19.17
-2.57
-21.93
-39.66
-58.81
-83.26
-116.11
-158.39
-208.37
-261.78
-312.29
-352.56
-375.83
-377.53
-356.91
-317.38
-265.46
-208.48
-152.09
-98.76
-48.11
1.36
50.17
96.62
137.39
169.11
190.22
201.62
206.34
208.02
209.25
210.47
209.56
202.46
184.47
152.01
104.55
45.98
-15.48
-68.94
-103.71
-112.52
-93.56
-50.73
7.79
72.27
133.78
185.63
223.64
245.88
252.19
244.10
224.82
199.02
172.04
148.53
131.09
119.44
110.83
101.27
87.62
69.31
48.91
31.08
20.32
18.51
23.64
29.97
30.02
17.29
-11.21
-53.66
-104.00
-153.76
-194.72
-221.14
-230.92
-225.33
-207.77
-182.04
-151.21
-117.18
-81.16
-44.46
-8.95
23.15
49.62
68.51
78.09
76.79
63.87
40.82
12.45
-13.34
-27.76
-24.77
-3.92
28.96
63.96
91.06
103.56
99.14
78.78
44.62
-1.28
-56.48
-116.62
-174.59
-221.46
-249.00
-252.75
-233.59
-197.46
-153.21
-109.57
-72.85
-45.71
-27.68
-16.51
-9.86
-6.32
-5.47
-7.26
-11.26
-16.18
-20.15
-21.45
-19.29
-14.14
-7.50
-1.15
3.54
6.15
7.13
7.38
7.80
8.82
10.34
11.87
12.84
12.90
12.18
11.28
11.02
12.13
14.90
19.03
23.77
28.22
31.78
34.26
35.84
36.76
37.06
36.50
34.70
31.42
26.73
21.15
15.37
10.03
5.53
1.92
-0.99
-3.46
-5.66
-7.71
-9.67
-11.70
-14.05
-16.96
-20.50
-24.36
-27.92
-30.31
-30.84
-29.13
-25.35
-19.99
-13.74
-7.15
-0.55
5.92
12.17
17.96
23.01
27.07
30.06
32.15
33.64
34.88
36.11
37.33
38.44
39.38
40.25
41.36
43.14
45.99
50.18
55.69
62.18
69.05
75.62
81.33
85.92
89.54
92.74
96.20
100.44
105.55
111.13
116.50
120.95
124.07
125.75
126.04
125.12
123.19
120.36
116.64
111.66
104.28
92.63
74.51
48.23
13.72
-26.69
-68.17
-104.11
-127.70
-133.89
-120.94
-91.20
-50.53
-6.61
32.93
61.92
76.17
73.70
54.97
23.60
-13.43
-46.99
-68.46
-73.24
-63.09
-46.15
-33.67
-35.65
-57.13
-97.26
-150.36
-208.30
-262.68
-306.01
-332.59
-339.58
-328.27
-304.59
-277.95
-258.13
-251.50
-258.40
-272.84
-285.05
-285.57
-268.69
-234.18
-186.54
-132.58
-78.77
-29.46
13.75
51.46
85.52
117.95
150.41
183.81
217.79
250.55
278.90
298.83
306.55
299.81
278.91
246.88
208.86
170.72
137.39
111.74
94.06
82.46
73.82
65.05
54.04
40.31
24.96
10.08
-2.04
-9.83
-13.00
-12.42
-9.77
-6.82
-4.87
-4.57
-6.00
-8.84
-12.57
-16.74
-21.09
-25.72
-31.13
-38.00
-46.71
-56.96
-67.50
-76.49
-82.21
-83.69
-81.16
-75.87
-69.48
-63.45
-58.50
-54.58
-51.08
-47.34
-42.89
-37.58
-31.55
-25.03
-18.22
-11.32
-4.57
1.62
6.71
10.28
12.19
12.80
12.90
13.38
14.83
17.31
20.25
22.79
24.21
24.33
23.58
22.71
22.30
22.41
22.58
22.12
20.56
17.92
14.72
11.66
9.35
8.04
7.60
7.71
7.96
8.02
7.69
6.83
5.36
3.27
0.62
-2.44
-5.67
-8.77
-11.44
-13.43
-14.54
-14.64
-13.53
-11.02
-6.94
-1.36
5.28
12.16
18.30
22.86
25.51
26.57
26.70
26.64
26.87
27.37
27.75
27.45
26.04
23.41
19.87
15.99
12.41
9.60
7.71
6.64
6.18
6.09
6.29
6.71
7.27
7.78
7.95
7.58
6.74
5.75
5.01
4.71
4.66
4.32
3.13
0.85
-2.22
-5.32
-7.64
-8.71
-8.66
-8.11
-7.90
-8.62
-10.36
-12.70
-14.90
-16.19
-16.07
-14.25
-10.80
-5.96
-0.11
6.25
12.53
18.13
22.54
25.47
26.96
27.32
26.95
26.24
25.36
24.33
23.10
21.68
20.13
18.65
17.39
16.47
15.93
15.78
16.08
16.87
18.11
19.56
20.79
21.28
20.64
18.78
15.90
12.51
9.15
6.25
4.01
2.36
1.03
-0.32
-1.91
-3.81
-5.86
-7.73
-9.15
-10.05
-10.71
-11.66
-13.37
-16.04
-19.43
-22.92
-25.78
-27.43
-27.58
-26.26
-23.72
-20.33
-16.47
-12.53
-8.77
-5.32
-2.16
0.80
3.60
6.14
8.23
9.67
10.39
10.48
10.21
9.84
9.52
9.26
8.99
8.69
8.40
8.20
8.14
8.15
8.11
7.90
7.51
7.01
6.55
6.17
5.84
5.41
4.74
3.78
2.59
1.21
-0.38
-2.28
-4.55
-7.13
-9.78
-12.12
-13.78
-14.66
-14.96
-15.16
-15.76
-17.02
-18.88
-20.82
-22.19
-22.35
-20.94
-17.97
-13.77
-8.84
-3.72
1.09
5.18
8.26
10.26
11.29
11.65
11.71
11.74
11.79
11.78
11.53
10.94
10.05
9.03
8.06
7.23
6.48
5.75
5.04
4.56
4.54
5.14
6.35
7.78
8.84
8.99
7.90
5.69
2.76
-0.33
-3.16
-5.47
-7.26
-8.61
-9.61
-10.34
-10.91
-11.48
-12.23
-13.34
-14.87
-16.72
-18.65
-20.23
-21.04
-20.69
-19.01
-16.05
-12.17
-7.82
-3.52
0.45
3.96
7.01
9.68
11.94
13.73
14.92
15.46
15.35
14.68
13.61
12.33
11.04
9.94
9.19
8.86
8.98
9.48
10.23
11.01
11.58
11.72
11.30
10.29
8.80
7.00
5.03
2.99
0.93
-1.12
-3.08
-4.89
-6.50
-7.98
-9.47
-11.11
-12.94
-14.87
-16.75
-18.47
-20.08
-21.72
-23.56
-25.54
-27.37
-28.51
-28.41
-26.77
-23.59
-19.17
-13.97
-8.44
-2.98
2.13
6.63
10.35
13.16
15.03
16.09
16.49
16.38
15.84
14.90
13.60
12.10
10.60
9.33
8.47
8.08
8.11
8.39
8.72
8.93
8.89
8.54
7.90
7.02
5.98
4.87
3.80
2.87
2.21
1.83
1.61
1.33
0.68
-0.59
-2.53
-4.96
-7.59
-10.11
-12.38
-14.45
-16.45
-18.48
-20.52
-22.37
-23.74
-24.33
-23.88
-22.23
-19.36
-15.39
-10.62
-5.51
-0.56
3.82
7.37
10.06
12.03
13.41
14.31
14.78
14.87
14.63
14.22
13.80
13.50
13.41
13.51
13.71
13.93
14.14
14.29
14.38
14.40
14.34
14.24
14.11
13.88
13.46
12.71
11.49
9.85
7.95
6.00
4.13
2.30
0.33
-1.91
-4.41
-6.91
-9.09
-10.75
-11.95
-12.98
-14.19
-15.84
-17.94
-20.32
-22.70
-24.69
-25.93
-26.02
-24.68
-21.79
-17.55
-12.42
-7.03
-2.04
2.13
5.26
7.45
8.99
10.19
11.25
12.20
12.85
12.96
12.40
11.28
9.95
8.85
8.38
8.63
9.38
10.19
10.63
10.44
9.65
8.54
7.45
6.62
6.07
5.59
4.90
3.79
2.19
0.20
-1.99
-4.21
-6.29
-8.13
-9.65
-10.80
-11.59
-12.10
-12.53
-13.10
-14.02
-15.40
-17.24
-19.42
-21.64
-23.41
-24.12
-23.17
-20.23
-15.39
-9.23
-2.66
3.38
8.20
11.55
13.60
14.74
15.41
15.84
16.08
15.96
15.34
14.18
12.63
11.05
9.86
9.41
9.87
11.14
12.93
14.82
16.44
17.45
17.70
17.15
15.91
14.16
12.14
10.05
7.95
5.81
3.50
0.91
-1.94
-4.89
-7.70
-10.16
-12.17
-13.81
-15.27
-16.76
-18.38
-20.14
-21.87
-23.29
-24.06
-23.83
-22.41
-19.77
-16.02
-11.43
-6.32
-1.05
4.09
8.74
12.60
15.43
17.09
17.64
17.23
16.09
14.47
12.66
10.92
9.52
8.65
8.38
8.66
9.31
10.12
10.92
11.57
11.89
11.70
10.87
9.42
7.55
5.56
3.70
2.01
0.37
-1.46
-3.63
-6.07
-8.53
-10.70
-12.37
-13.55
-14.46
-15.32
-16.27
-17.31
-18.30
-19.14
-19.90
-20.75
-21.82
-23.03
-23.93
-23.83
-22.08
-18.33
-12.85
-6.42
-0.05
5.42
9.62
12.64
14.88
16.66
18.01
18.70
18.51
17.47
15.93
14.44
13.48
13.18
13.26
13.33
13.14
12.76
12.51
12.65
13.19
13.81
14.12
13.82
12.95
11.79
10.66
9.72
8.91
8.00
6.75
4.99
2.62
-0.36
-3.82
-7.49
-10.95
-13.73
-15.46
-16.06
-15.81
-15.28
-15.08
-15.71
-17.36
-19.86
-22.78
-25.52
-27.45
-28.01
-26.84
-23.85
-19.25
-13.55
-7.44
-1.64
3.21
6.76
8.96
10.01
10.24
10.08
9.86
9.84
10.16
10.79
11.56
12.22
12.56
12.48
12.04
11.48
11.01
10.69
10.47
10.16
9.62
8.84
7.93
7.01
6.13
5.25
4.27
3.18
2.00
0.82
-0.31
-1.42
-2.64
-4.09
-5.86
-7.90
-10.09
-12.27
-14.30
-16.11
-17.75
-19.36
-21.08
-22.90
-24.62
-25.75
-25.81
-24.36
-21.27
-16.78
-11.41
-5.84
-0.69
3.61
6.90
9.28
10.96
12.19
13.10
13.63
13.66
13.07
11.93
10.52
9.18
8.24
7.83
7.90
8.31
8.88
9.46
9.89
10.01
9.69
8.88
7.67
6.31
5.10
4.23
3.67
3.20
2.46
1.17
-0.78
-3.26
-5.99
-8.67
-11.06
-13.18
-15.19
-17.34
-19.85
-22.84
-26.25
-29.81
-33.15
-35.76
-37.13
-36.84
-34.66
-30.64
-25.12
-18.70
-12.08
-5.88
-0.48
3.99
7.63
10.60
13.00
14.82
15.96
16.34
16.00
15.13
13.99
12.79
11.59
10.38
9.13
7.94
7.02
6.63
6.86
7.54
8.29
8.65
8.35
7.38
6.06
4.75
3.66
2.73
1.60
-0.06
-2.32
-4.91
-7.28
-8.93
-9.68
-9.80
-9.90
-10.61
-12.23
-14.60
-17.05
-18.69
-18.67
-16.54
-12.31
-6.56
-0.18
5.94
11.10
15.02
17.78
19.67
20.95
21.78
22.12
21.89
21.02
19.62
17.94
16.30
15.00
14.16
13.76
13.64
13.60
13.44
13.07
12.47
11.68
10.72
9.69
8.70
7.80
7.05
6.37
5.55
4.40
2.76
0.62
-1.92
-4.67
-7.43
-10.02
-12.29
-14.14
-15.57
-16.69
-17.77
-19.09
-20.83
-22.89
-24.84
-26.02
-25.79
-23.79
-20.06
-15.07
-9.47
-3.88
1.29
5.87
9.77
12.92
15.24
16.65
17.19
17.05
16.44
15.53
14.43
13.18
11.84
10.57
9.54
8.93
8.78
9.08
9.65
10.34
11.03
11.70
12.30
12.77
12.99
12.75
11.92
10.39
8.23
5.63
2.85
0.12
-2.42
-4.83
-7.27
-9.89
-12.78
-15.85
-18.95
-21.95
-24.84
-27.75
-30.78
-33.91
-36.76
-38.69
-38.97
-37.01
-32.75
-26.60
-19.33
-11.77
-4.60
1.85
7.51
12.37
16.35
19.23
20.78
20.88
19.77
17.99
16.18
14.90
14.36
14.46
14.93
15.46
15.92
16.31
16.66
16.93
17.02
16.78
16.12
15.11
13.88
12.61
11.34
10.04
8.64
7.09
5.43
3.77
2.20
0.71
-0.81
-2.56
-4.70
-7.26
-10.09
-12.94
-15.56
-17.83
-19.84
-21.75
-23.71
-25.73
-27.64
-29.22
-30.23
-30.45
-29.67
-27.70
-24.37
-19.67
-13.85
-7.49
-1.35
3.86
7.71
10.20
11.62
12.44
12.94
13.20
13.08
12.46
11.47
10.43
9.78
9.77
10.39
11.29
12.03
12.33
12.16
11.67
11.06
10.46
9.85
9.13
8.24
7.13
5.77
4.11
2.10
-0.23
-2.75
-5.23
-7.46
-9.36
-10.97
-12.34
-13.45
-14.13
-14.21
-13.73
-13.06
-12.76
-13.35
-15.02
-17.51
-20.24
-22.48
-23.63
-23.32
-21.41
-17.94
-13.09
-7.28
-1.08
4.76
9.59
13.09
15.37
16.88
18.20
19.65
21.25
22.69
23.46
23.19
21.77
19.36
16.36
13.35
10.97
9.80
10.15
11.85
14.28
16.52
17.73
17.50
15.94
13.54
10.78
7.98
5.09
1.98
-1.38
-4.85
-8.08
-10.79
-12.77
-14.04
-14.71
-14.96
-15.00
-15.05
-15.41
-16.29
-17.85
-20.03
-22.49
-24.59
-25.53
-24.58
-21.32
-15.84
-8.70
-0.82
6.84
13.48
18.58
21.95
23.69
24.12
23.71
22.99
22.36
21.92
21.52
20.88
19.86
18.59
17.57
17.38
18.35
20.26
22.33
23.46
22.69
19.58
14.48
8.28
2.19
-2.74
-5.92
-7.37
-7.49
-6.89
-6.17
-5.81
-6.11
-7.21
-9.09
-11.55
-14.32
-17.12
-19.81
-22.36
-24.83
-27.31
-29.85
-32.44
-34.94
-37.14
-38.66
-39.02
-37.69
-34.30
-28.82
-21.68
-13.66
-5.68
1.44
7.23
11.57
14.72
17.02
18.76
20.07
20.94
21.30
21.13
20.61
19.95
19.36
18.94
18.62
18.27
17.75
17.14
16.61
16.38
16.47
16.71
16.72
16.08
14.53
12.08
9.01
5.69
2.49
-0.38
-2.82
-4.86
-6.60
-8.24
-9.96
-11.93
-14.19
-16.68
-19.19
-21.49
-23.42
-24.98
-26.30
-27.50
-28.64
-29.60
-30.11
-29.78
-28.30
-25.47
-21.28
-15.86
-9.53
-2.75
3.91
9.85
14.58
17.83
19.64
20.30
20.26
19.91
19.45
18.95
18.41
17.87
17.45
17.24
17.25
17.38
17.56
17.84
18.45
19.58
21.24
23.07
24.57
25.21
24.84
23.62
22.04
20.61
19.78
19.83
20.83
22.54
24.30
25.22
24.63
22.64
20.62
20.98
26.42
38.72
57.89
81.92
107.37
130.31
147.12
154.97
151.76
136.04
107.03
65.07
12.27
-46.97
-106.23
-158.32
-196.90
-218.16
-221.55
-209.39
-185.84
-155.68
-123.89
-95.84
-77.26
-73.14
-85.73
-112.52
-145.61
-173.63
-185.51
-174.29
-138.98
-83.88
-16.24
55.83
124.23
180.57
216.34
224.76
203.94
159.52
104.40
54.95
24.81
19.70
35.84
62.54
87.64
102.48
104.30
95.36
80.11
62.40
44.25
26.15
8.29
-8.56
-22.93
-33.20
-38.55
-39.34
-37.25
-34.57
-33.26
-34.14
-36.50
-38.62
-38.65
-35.74
-30.56
-25.08
-21.56
-21.38
-24.37
-28.97
-33.02
-34.80
-33.76
-30.54
-26.49
-22.96
-20.72
-19.78
-19.60
-19.43
-18.65
-17.05
-14.76
-12.20
-9.87
-8.22
-7.51
-7.76
-8.75
-10.03
-11.13
-11.69
-11.68
-11.41
-11.48
-12.46
-14.70
-18.17
-22.56
-27.43
-32.46
-37.48
-42.31
-46.62
-49.84
-51.27
-50.42
-47.16
-41.88
-35.27
-28.12
-20.95
-14.10
-7.73
-2.06
2.64
6.09
8.26
9.40
10.00
10.54
11.28
12.18
13.00
13.50
13.66
13.60
13.56
13.69
13.95
14.21
14.39
14.48
14.54
14.58
14.57
14.38
13.90
13.03
11.80
10.24
8.37
6.10
3.32
0.03
-3.59
-7.13
-10.19
-12.46
-13.87
-14.62
-15.10
-15.72
-16.83
-18.59
-20.83
-23.20
-25.09
-25.88
-25.00
-22.12
-17.26
-10.75
-3.22
4.61
11.97
18.23
22.91
25.81
26.99
26.79
25.70
24.22
22.76
21.51
20.57
19.88
19.40
19.21
19.33
19.82
20.55
21.36
21.97
22.22
22.08
21.54
20.69
19.47
17.80
15.63
13.08
10.37
7.79
5.51
3.40
1.23
-1.24
-3.97
-6.65
-8.77
-10.02
-10.43
-10.45
-10.75
-11.95
-14.36
-17.91
-22.18
-26.55
-30.33
-32.87
-33.59
-32.08
-28.13
-21.92
-14.06
-5.48
2.77
9.83
15.30
19.20
21.83
23.59
24.72
25.26
25.16
24.42
23.16
21.64
20.03
18.44
16.85
15.28
13.86
12.83
12.43
12.76
13.64
14.69
15.40
15.38
14.44
12.63
10.14
7.18
3.86
0.25
-3.58
-7.54
-11.49
-15.29
-18.77
-21.73
-23.94
-25.21
-25.39
-24.59
-23.17
-21.70
-20.80
-20.94
-22.24
-24.50
-27.28
-29.98
-31.90
-32.35
-30.72
-26.66
-20.26
-12.10
-3.16
5.45
12.85
18.57
22.60
25.27
26.96
27.98
28.48
28.51
28.04
27.08
25.69
24.01
22.24
20.57
19.14
18.05
17.36
17.06
17.19
17.65
18.24
18.62
18.40
17.33
15.46
13.10
10.69
8.49
6.43
4.21
1.50
-1.78
-5.39
-8.91
-11.99
-14.51
-16.56
-18.32
-19.88
-21.21
-22.33
-23.33
-24.39
-25.55
-26.58
-26.91
-25.82
-22.76
-17.57
-10.59
-2.51
5.81
13.63
20.39
25.81
29.84
32.52
33.97
34.33
33.71
32.22
30.02
27.36
24.51
21.78
19.41
17.52
16.17
15.27
14.69
14.21
13.59
12.65
11.29
9.46
7.19
4.50
1.40
-2.08
-5.79
-9.47
-12.78
-15.45
-17.38
-18.67
-19.55
-20.34
-21.28
-22.48
-23.98
-25.68
-27.45
-29.20
-30.91
-32.63
-34.41
-36.08
-37.15
-36.90
-34.63
-30.00
-23.26
-15.17
-6.65
1.54
9.09
15.99
22.21
27.51
31.41
33.41
33.38
31.71
29.19
26.70
24.83
23.64
22.84
21.98
20.78
19.31
17.94
17.10
17.09
17.86
18.91
19.48
18.84
16.63
13.14
9.27
6.18
4.73
5.11
6.68
8.26
8.67
7.21
4.00
0.05
-2.86
-2.48
3.34
15.69
33.87
55.00
74.58
88.13
93.09
90.28
83.89
79.85
83.23
96.17
116.76
139.77
158.48
166.76
160.58
138.66
102.52
56.20
5.64
-42.44
-82.18
-110.07
-125.88
-132.23
-133.08
-131.79
-129.83
-126.70
-120.97
-111.62
-98.82
-83.94
-68.80
-54.81
-42.72
-32.70
-24.82
-19.23
-16.11
-15.44
-16.90
-19.75
-22.90
-25.16
-25.55
-23.67
-19.91
-15.36
-11.40
-9.11
-8.77
-9.93
-11.77
-13.59
-15.16
-16.59
-18.09
-19.65
-21.11
-22.27
-23.21
-24.29
-25.89
-28.05
-30.31
-31.84
-31.78
-29.58
-25.24
-19.18
-12.14
-4.96
1.59
6.92
10.79
13.30
14.81
15.74
16.41
16.95
17.32
17.48
17.42
17.20
16.82
16.18
15.13
13.59
11.71
9.93
8.78
8.69
9.80
11.86
14.28
16.35
17.35
16.80
14.58
11.00
6.66
2.37
-1.20
-3.79
-5.61
-7.29
-9.50
-12.66
-16.70
-21.06
-24.94
-27.66
-29.01
-29.29
-29.26
-29.78
-31.51
-34.52
-38.30
-41.92
-44.35
-44.88
-43.34
-40.05
-35.68
-30.88
-26.12
-21.65
-17.59
-14.09
-11.39
-9.83
-9.62
-10.85
-13.35
-16.76
-20.51
-23.89
-26.17
-26.83
-25.89
-24.04
-22.57
-22.70
-24.78
-27.48
-27.73
-21.36
-4.63
24.32
64.32
111.20
158.72
200.15
229.95
244.90
244.56
230.93
207.73
179.48
150.63
124.75
103.91
88.36
76.75
66.71
55.83
42.48
26.38
8.38
-10.16
-28.05
-44.66
-59.72
-72.80
-83.01
-89.16
-90.37
-86.87
-80.25
-72.99
-67.50
-65.08
-65.43
-67.01
-67.93
-66.90
-63.82
-59.66
-55.79
-53.31
-52.55
-53.01
-53.68
-53.53
-51.91
-48.75
-44.42
-39.47
-34.38
-29.34
-24.35
-19.44
-14.78
-10.74
-7.76
-6.06
-5.56
-5.89
-6.52
-7.02
-7.15
-6.94
-6.54
-6.22
-6.19
-6.56
-7.34
-8.35
-9.32
-9.98
-10.27
-10.42
-10.83
-11.82
-13.36
-15.01
-16.09
-15.94
-14.27
-11.21
-7.21
-2.82
1.55
5.72
9.64
13.33
16.69
19.55
21.71
23.07
23.62
23.49
22.84
21.81
20.49
18.94
17.21
15.45
13.99
13.12
13.09
13.87
15.17
16.52
17.46
17.72
17.27
16.32
15.14
13.91
12.69
11.40
9.97
8.36
6.63
4.87
3.14
1.41
-0.42
-2.48
-4.81
-7.32
-9.83
-12.07
-13.84
-15.09
-15.92
-16.51
-17.11
-17.88
-18.90
-20.02
-20.93
-21.18
-20.30
-18.01
-14.32
-9.57
-4.33
0.79
5.35
9.16
12.23
14.68
16.57
17.92
18.72
19.00
18.85
18.39
17.70
16.81
15.71
14.44
13.13
12.01
11.35
11.36
12.03
13.15
14.30
15.06
15.09
14.23
12.57
10.27
7.58
4.75
2.03
-0.34
-2.16
-3.39
-4.13
-4.63
-5.22
-6.16
-7.51
-9.18
-10.97
-12.67
-14.17
-15.55
-17.03
-18.89
-21.34
-24.35
-27.63
-30.59
-32.49
-32.63
-30.61
-26.40
-20.37
-13.17
-5.55
1.75
8.16
13.34
17.11
19.52
20.74
20.99
20.55
19.67
18.58
17.52
16.72
16.33
16.45
17.00
17.80
18.65
19.31
19.65
19.58
19.11
18.22
16.89
15.10
12.89
10.37
7.74
5.18
2.83
0.66
-1.44
-3.59
-5.85
-8.16
-10.37
-12.36
-14.15
-15.89
-17.80
-20.04
-22.58
-25.20
-27.61
-29.49
-30.62
-30.82
-29.96
-27.91
-24.61
-20.11
-14.65
-8.66
-2.65
2.88
7.62
11.51
14.66
17.17
19.05
20.13
20.13
18.85
16.34
13.01
9.55
6.69
4.97
4.53
5.09
6.16
7.31
8.31
9.20
10.14
11.13
11.99
12.31
11.76
10.20
7.85
5.13
2.45
0.00
-2.21
-4.27
-6.20
-7.95
-9.56
-11.22
-13.29
-16.10
-19.68
-23.75
-27.79
-31.34
-34.18
-36.24
-37.46
-37.56
-36.11
-32.75
-27.49
-20.81
-13.57
-6.60
-0.44
4.77
9.19
12.97
16.15
18.63
20.23
20.89
20.69
19.85
18.69
17.50
16.47
15.72
15.33
15.34
15.74
16.49
17.43
18.29
18.79
18.67
17.81
16.25
14.21
12.01
9.97
8.31
7.06
6.07
5.07
3.74
1.83
-0.77
-3.95
-7.42
-10.88
-14.04
-16.74
-18.91
-20.66
-22.22
-23.88
-25.85
-28.14
-30.44
-32.14
-32.46
-30.74
-26.67
-20.49
-12.94
-4.99
2.49
8.86
13.93
17.74
20.50
22.42
23.60
24.10
23.90
23.07
21.74
20.18
18.71
17.61
17.04
16.98
17.24
17.61
17.92
18.11
18.22
18.24
18.07
17.53
16.41
14.71
12.62
10.57
8.93
7.83
7.06
6.15
4.64
2.30
-0.76
-4.14
-7.35
-10.08
-12.23
-13.92
-15.35
-16.71
-18.07
-19.47
-20.99
-22.72
-24.72
-26.87
-28.73
-29.61
-28.74
-25.57
-20.05
-12.75
-4.67
3.07
9.57
14.44
17.68
19.63
20.66
21.06
21.01
20.55
19.69
18.41
16.75
14.78
12.70
10.76
9.25
8.39
8.29
8.85
9.82
10.86
11.58
11.71
11.09
9.73
7.82
5.68
3.62
1.82
0.39
-0.73
-1.66
-2.55
-3.62
-5.06
-6.99
-9.40
-12.03
-14.50
-16.45
-17.70
-18.45
-19.11
-20.14
-21.83
-24.10
-26.47
-28.25
-28.70
-27.31
-23.87
-18.58
-11.94
-4.72
2.29
8.40
13.16
16.43
18.33
19.16
19.23
18.87
18.27
17.58
16.91
16.30
15.74
15.20
14.60
13.91
13.19
12.53
12.05
11.78
11.69
11.67
11.66
11.61
11.54
11.38
11.00
10.22
8.89
6.99
4.66
2.11
-0.45
-2.90
-5.19
-7.30
-9.15
-10.72
-12.10
-13.56
-15.50
-18.20
-21.64
-25.44
-28.89
-31.19
-31.74
-30.28
-26.92
-22.04
-16.21
-9.98
-3.92
1.50
5.94
9.20
11.29
12.42
12.90
12.96
12.82
12.53
12.09
11.54
10.90
10.31
9.91
9.77
9.90
10.25
10.75
11.32
11.96
12.64
13.28
13.74
13.84
13.42
12.46
11.03
9.30
7.46
5.57
3.63
1.58
-0.65
-3.04
-5.53
-8.01
-10.38
-12.49
-14.31
-15.83
-17.13
-18.36
-19.68
-21.20
-22.90
-24.64
-26.15
-27.09
-27.16
-26.07
-23.66
-19.83
-14.71
-8.60
-2.03
4.33
9.78
13.85
16.39
17.58
17.88
17.79
17.67
17.64
17.62
17.44
16.98
16.25
15.35
14.44
13.61
12.91
12.31
11.80
11.35
10.96
10.65
10.38
10.11
9.72
9.06
8.02
6.52
4.64
2.56
0.51
-1.23
-2.54
-3.47
-4.22
-5.05
-6.23
-7.82
-9.75
-11.80
-13.78
-15.56
-17.18
-18.80
-20.58
-22.61
-24.80
-26.95
-28.71
-29.67
-29.46
-27.83
-24.70
-20.24
-14.87
-9.11
-3.48
1.61
5.96
9.53
12.36
14.53
16.09
16.99
17.15
16.49
14.99
12.83
10.41
8.26
6.86
6.45
6.93
7.92
9.01
9.93
10.65
11.27
11.86
12.29
12.36
11.86
10.77
9.31
7.81
6.55
5.61
4.88
4.10
3.06
1.61
-0.25
-2.45
-4.81
-7.15
-9.25
-10.97
-12.31
-13.39
-14.44
-15.74
-17.42
-19.46
-21.76
-24.11
-26.30
-28.06
-29.02
-28.73
-26.77
-22.98
-17.56
-11.20
-4.73
1.07
5.81
9.47
12.26
14.35
15.77
16.43
16.30
15.49
14.30
13.02
11.88
10.89
9.99
9.13
8.37
7.85
7.66
7.79
8.11
8.46
8.66
8.62
8.28
7.63
6.68
5.51
4.22
2.93
1.78
0.83
0.05
-0.68
-1.57
-2.79
-4.47
-6.58
-9.03
-11.57
-13.99
-16.05
-17.67
-18.88
-19.86
-20.83
-21.96
-23.26
-24.47
-25.13
-24.67
-22.70
-19.08
-14.01
-8.04
-1.80
4.03
8.99
12.82
15.49
17.13
17.91
18.00
17.52
16.53
15.12
13.48
11.88
10.60
9.88
9.78
10.23
11.00
11.87
12.68
13.36
13.88
14.24
14.38
14.24
13.75
12.90
11.70
10.25
8.62
6.90
5.13
3.31
1.41
-0.63
-2.84
-5.26
-7.87
-10.60
-13.39
-16.14
-18.75
-21.13
-23.28
-25.26
-27.23
-29.30
-31.44
-33.36
-34.57
-34.57
-32.97
-29.64
-24.79
-18.85
-12.34
-5.80
0.31
5.69
10.09
13.38
15.55
16.64
16.74
16.07
14.86
13.43
12.12
11.19
10.82
11.02
11.71
12.75
13.99
15.27
16.44
17.38
18.01
18.29
18.26
17.88
17.09
15.81
13.97
11.65
9.09
6.60
4.48
2.86
1.65
0.53
-0.83
-2.69
-5.06
-7.70
-10.31
-12.62
-14.52
-16.11
-17.63
-19.31
-21.38
-23.93
-26.89
-30.05
-32.96
-35.05
-35.73
-34.52
-31.17
-25.82
-18.86
-10.98
-2.97
4.41
10.52
15.02
17.91
19.48
20.16
20.35
20.31
20.08
19.65
19.03
18.32
17.64
17.08
16.59
16.00
15.16
14.01
12.65
11.30
10.18
9.43
8.95
8.55
7.92
6.90
5.48
3.80
2.12
0.63
-0.59
-1.66
-2.81
-4.28
-6.19
-8.48
-10.95
-13.27
-15.18
-16.60
-17.62
-18.53
-19.65
-21.23
-23.35
-25.89
-28.55
-30.92
-32.46
-32.63
-31.00
-27.39
-22.00
-15.45
-8.57
-2.17
3.21
7.40
10.48
12.63
13.90
14.31
13.82
12.57
10.79
8.79
6.77
4.85
3.03
1.35
-0.02
-0.82
-0.82
-0.03
1.31
2.76
3.93
4.67
5.08
5.47
6.17
7.34
8.90
10.50
11.77
12.39
12.24
11.36
9.98
8.35
6.68
5.16
3.86
2.81
1.87
0.86
-0.48
-2.40
-5.00
-8.21
-11.75
-15.22
-18.08
-19.89
-20.25
-18.94
-15.98
-11.59
-6.23
-0.45
5.17
10.11
13.94
16.37
17.29
16.79
15.26
13.31
11.55
10.38
9.84
9.63
9.34
8.66
7.65
6.65
6.13
6.32
7.14
8.18
8.90
9.02
8.55
7.72
6.88
6.16
5.46
4.43
2.74
0.25
-2.85
-6.11
-9.02
-11.18
-12.54
-13.36
-14.05
-15.07
-16.65
-18.83
-21.40
-24.04
-26.36
-28.01
-28.62
-27.83
-25.39
-21.21
-15.47
-8.64
-1.36
5.68
11.91
16.97
20.66
22.93
23.85
23.57
22.35
20.57
18.62
16.77
15.18
13.85
12.83
12.23
12.25
12.98
14.32
15.93
17.33
18.17
18.34
17.99
17.36
16.54
15.51
14.09
12.25
10.09
7.90
5.90
4.11
2.30
0.05
-2.91
-6.59
-10.62
-14.48
-17.74
-20.27
-22.25
-24.10
-26.17
-28.47
-30.62
-31.89
-31.50
-28.92
-24.06
-17.34
-9.53
-1.47
6.10
12.68
18.03
22.05
24.71
26.02
26.00
24.89
23.08
21.12
19.49
18.46
17.96
17.72
17.39
16.77
15.90
14.96
14.18
13.70
13.49
13.42
13.27
12.80
11.76
10.00
7.45
4.27
0.77
-2.70
-5.90
-8.85
-11.77
-14.93
-18.39
-21.96
-25.18
-27.68
-29.30
-30.19
-30.75
-31.35
-32.17
-33.08
-33.68
-33.42
-31.83
-28.62
-23.78
-17.62
-10.61
-3.37
3.54
9.73
15.04
19.49
23.18
26.13
28.27
29.51
29.76
29.12
27.85
26.30
24.74
23.37
22.19
21.16
20.26
19.51
18.91
18.45
18.02
17.43
16.60
15.50
14.15
12.63
10.96
9.10
7.03
4.72
2.18
-0.55
-3.44
-6.46
-9.56
-12.64
-15.60
-18.34
-20.82
-23.16
-25.52
-28.03
-30.75
-33.54
-36.09
-37.94
-38.62
-37.72
-35.03
-30.57
-24.63
-17.70
-10.31
-3.00
3.70
9.34
13.60
16.32
17.61
17.73
17.05
15.92
14.55
13.06
11.56
10.18
9.07
8.40
8.17
8.27
8.53
8.81
9.07
9.34
9.62
9.77
9.56
8.73
7.18
5.01
2.48
-0.16
-2.80
-5.45
-8.22
-11.12
-14.01
-16.61
-18.64
-19.96
-20.71
-21.21
-21.80
-22.71
-23.91
-25.14
-26.02
-26.08
-24.94
-22.34
-18.20
-12.63
-6.00
1.18
8.18
14.33
19.09
22.26
23.89
24.29
23.79
22.61
20.80
18.24
14.87
10.89
6.82
3.43
1.36
0.91
1.88
3.79
6.16
8.85
12.07
16.18
21.41
27.45
33.54
38.70
42.16
43.64
43.38
41.99
40.18
38.60
37.62
37.40
37.91
38.97
39.98
40.20
39.00
36.39
33.15
30.56
29.82
31.58
35.72
41.14
46.51
51.13
55.39
60.25
65.92
70.72
71.24
63.58
44.34
12.42
-30.32
-79.20
-127.83
-169.51
-198.13
-208.62
-197.87
-167.44
-124.61
-81.49
-51.51
-44.79
-64.69
-107.20
-162.79
-213.90
-243.77
-242.35
-210.98
-160.26
-102.52
-45.59
7.43
56.24
100.43
137.87
165.32
180.20
182.93
176.10
163.22
146.79
128.18
107.83
85.20
59.68
31.25
1.01
-29.17
-54.01
-69.57
-73.03
-62.71
-38.42
-1.40
45.44
97.39
147.86
189.16
213.38
215.17
193.53
151.95
97.21
36.77
-23.22
-78.96
-128.13
-169.04
-199.59
-217.95
-223.76
-219.54
-210.81
-204.86
-208.26
-224.44
-252.11
-284.74
-312.31
-324.59
-314.37
-279.85
-224.97
-157.99
-89.30
-29.42
12.50
30.12
21.25
-10.43
-55.07
-98.62
-127.12
-131.61
-111.35
-73.46
-29.06
11.64
42.65
62.88
74.63
80.99
84.59
87.67
92.95
104.31
126.65
164.52
220.60
294.40
381.76
474.74
562.89
635.32
683.19
701.87
692.03
659.15
611.62
558.13
505.31
456.60
412.35
371.11
330.98
290.71
249.77
207.93
165.03
121.02
76.72
34.34
-2.59
-30.38
-46.85
-52.65
-51.53
-48.91
-49.76
-57.02
-71.21
-91.23
-114.94
-139.49
-161.21
-175.60
-178.42
-167.61
-144.97
-116.40
-90.22
-74.10
-72.13
-83.44
-102.91
-123.58
-139.36
-146.83
-145.74
-138.19
-127.33
-116.32
-107.65
-102.72
-101.67
-103.45
-106.02
-106.98
-104.70
-99.34
-93.23
-90.23
-94.04
-106.40
-125.85
-147.95
-166.62
-176.00
-172.09
-153.52
-121.68
-80.56
-36.40
3.14
30.57
40.58
32.02
8.47
-22.68
-53.05
-76.17
-89.34
-93.63
-92.28
-88.71
-85.19
-82.66
-81.39
-81.64
-83.71
-87.36
-91.22
-92.88
-89.97
-81.50
-68.83
-55.30
-44.77
-39.65
-39.74
-42.56
-45.03
-45.42
-44.65
-45.91
-52.88
-67.53
-88.76
-112.68
-134.17
-148.77
-153.95
-149.40
-136.33
-116.71
-92.72
-66.84
-41.93
-21.19
-7.64
-3.32
-8.65
-22.24
-41.33
-62.57
-82.82
-99.75
-111.92
-118.64
-119.56
-114.36
-102.85
-85.22
-62.42
-36.28
-9.24
16.23
38.26
55.87
68.84
77.44
81.96
82.73
80.22
75.28
69.16
63.30
58.91
56.52
55.80
55.74
55.05
52.58
47.71
40.65
32.38
24.34
17.96
14.09
12.75
13.12
13.95
14.21
13.36
11.37
8.46
4.81
0.48
-4.41
-9.36
-13.38
-15.34
-14.51
-11.05
-5.91
-0.35
4.89
9.94
15.57
22.64
31.20
40.22
47.88
52.33
52.35
47.76
39.32
28.29
16.04
3.74
-7.71
-17.82
-26.47
-33.78
-39.80
-44.27
-46.58
-46.03
-42.30
-35.84
-27.92
-20.17
-13.89
-9.54
-6.64
-4.26
-1.58
1.74
5.55
9.44
13.02
16.07
18.46
20.14
21.11
21.49
21.54
21.62
21.92
22.45
23.03
23.35
23.29
22.95
22.66
22.90
24.13
26.63
30.38
34.88
39.15
42.01
42.53
40.54
36.88
33.04
30.48
29.90
30.90
32.24
32.62
31.37
28.72
25.54
22.85
21.14
20.24
19.41
17.74
14.67
10.07
4.27
-2.16
-8.60
-14.67
-20.28
-25.66
-31.27
-37.51
-44.58
-52.30
-60.09
-67.14
-72.52
-75.28
-74.60
-69.96
-61.16
-48.60
-33.22
-16.45
0.12
15.00
27.09
35.88
41.32
43.85
44.20
43.27
41.84
40.36
38.76
36.51
32.99
27.84
21.46
14.91
9.62
6.70
6.46
8.29
10.91
12.95
13.44
12.13
9.38
6.01
2.90
0.68
-0.47
-0.85
-1.10
-1.87
-3.49
-5.86
-8.55
-11.28
-14.21
-17.97
-23.23
-29.93
-36.81
-41.49
-41.52
-35.44
-23.68
-8.34
7.73
22.29
34.51
45.01
54.89
64.81
74.25
82.02
86.77
87.99
86.40
83.67
81.66
81.58
83.54
86.64
89.74
92.01
93.39
94.55
96.30
99.12
102.85
106.79
110.00
112.23
113.49
113.93
113.58
112.04
108.74
103.27
95.72
86.22
76.55
68.00
61.54
57.41
54.60
50.80
42.68
26.70
-0.92
-39.21
-85.73
-135.73
-183.43
-224.19
-255.51
-277.58
-292.98
-308.01
-325.30
-348.63
-379.14
-414.33
-448.59
-473.73
-481.90
-468.56
-437.72
-393.07
-342.99
-293.94
-248.21
-204.62
-158.66
-105.60
-28.32
49.06
121.39
177.85
208.29
206.49
171.65
111.45
40.18
-25.68
-76.67
-105.01
-112.59
-105.50
-83.29
-51.44
-17.93
6.27
20.30
22.38
15.48
1.11
-16.74
-32.21
-40.95
-40.23
-30.25
-13.63
3.20
17.11
26.50
33.10
40.57
51.34
66.48
84.95
104.26
119.82
129.54
133.27
133.48
134.58
140.86
156.33
183.25
220.54
261.41
295.19
309.24
293.95
247.33
177.13
99.70
34.77
-1.69
-3.41
25.77
75.00
131.47
184.60
227.42
255.87
267.64
261.19
236.67
199.02
158.01
124.98
108.13
108.97
122.35
140.79
157.49
168.18
173.04
173.81
169.73
156.64
129.46
86.01
31.34
-24.68
-72.31
-101.94
-106.67
-84.70
-38.53
25.95
100.05
174.91
239.73
281.66
293.68
276.92
238.58
189.62
141.16
88.67
32.08
-11.04
-38.43
-57.63
-72.46
-85.62
-99.56
-116.79
-139.53
-167.13
-199.09
-237.99
-284.52
-337.21
-393.30
-447.74
-493.25
-521.83
-525.95
-503.36
-459.92
-404.27
-344.79
-288.07
-237.52
-193.60
-155.24
-120.34
-87.71
-57.87
-29.94
-1.50
29.42
63.08
97.33
128.10
151.29
163.97
164.97
156.22
141.66
125.19
109.33
94.75
80.83
66.75
52.05
36.76
21.71
7.92
-3.76
-12.87
-19.29
-23.06
-24.38
-23.47
-20.70
-16.66
-12.11
-8.00
-5.25
-4.66
-6.79
-11.77
-19.26
-28.32
-37.51
-45.09
-49.49
-49.71
-45.62
-38.04
-28.32
-17.95
-8.01
0.91
8.64
15.10
20.10
23.31
24.45
23.54
21.02
17.59
14.00
10.88
8.67
7.67
8.13
10.17
13.68
18.28
23.32
28.06
31.85
34.28
35.16
34.57
32.74
30.04
26.92
23.82
21.03
18.67
16.60
14.40
11.61
7.78
2.67
-3.71
-11.04
-18.74
-26.12
-32.54
-37.49
-40.53
-41.27
-39.36
-34.56
-27.02
-17.35
-6.60
4.01
13.50
21.42
27.76
32.81
36.78
39.64
41.14
41.10
39.69
37.51
35.38
33.96
33.41
33.37
33.22
32.52
31.29
30.00
29.23
29.28
29.92
30.51
30.34
28.99
26.49
23.23
19.70
16.18
12.71
9.14
5.37
1.49
-2.31
-5.76
-8.72
-11.28
-13.68
-16.29
-19.38
-22.98
-26.73
-30.03
-32.01
-31.85
-28.95
-23.12
-14.71
-4.58
6.02
15.77
23.63
29.12
32.37
33.99
34.77
35.29
35.76
35.97
35.55
34.28
32.28
29.96
27.88
26.49
25.91
26.03
26.52
27.07
27.48
27.68
27.68
27.50
27.13
26.43
25.22
23.27
20.43
16.70
12.32
7.69
3.26
-0.65
-3.99
-6.84
-9.39
-11.70
-13.68
-15.16
-16.06
-16.41
-16.26
-15.58
-14.10
-11.52
-7.62
-2.49
3.47
9.72
15.76
21.30
26.24
30.57
34.25
37.14
39.07
39.88
39.54
38.12
35.86
33.07
30.20
27.69
25.89
24.97
24.81
25.10
25.39
25.27
24.51
23.12
21.24
19.07
16.73
14.22
11.59
8.92
6.37
4.12
2.20
0.44
-1.47
-3.78
-6.55
-9.58
-12.62
-15.49
-18.24
-21.13
-24.31
-27.62
-30.49
-32.09
-31.67
-28.92
-24.00
-17.53
-10.30
-2.97
4.00
10.38
16.11
21.10
25.19
28.24
30.11
30.81
30.47
29.38
27.81
26.10
24.45
22.99
21.80
20.90
20.27
19.83
19.43
18.91
18.16
17.23
16.21
15.26
14.38
13.42
12.17
10.43
8.21
5.74
3.36
1.35
-0.21
-1.53
-2.95
-4.76
-7.08
-9.77
-12.48
-14.85
-16.64
-17.78
-18.51
-19.13
-19.97
-21.25
-23.00
-24.96
-26.57
-27.00
-25.34
-20.85
-13.30
-3.22
8.07
18.78
27.25
32.39
34.09
33.04
30.29
26.77
22.92
18.81
14.42
9.91
5.76
2.65
0.98
0.73
1.45
2.42
3.10
3.30
3.21
3.12
3.22
3.41
3.35
2.67
1.19
-0.96
-3.37
-5.59
-7.31
-8.55
-9.59
-10.83
-12.48
-14.50
-16.55
-18.19
-19.12
-19.37
-19.30
-19.45
-20.24
-21.76
-23.70
-25.42
-26.19
-25.50
-23.17
-19.38
-14.54
-9.13
-3.64
1.57
6.23
10.22
13.57
16.39
18.83
20.96
22.68
23.70
23.75
22.71
20.73
18.25
15.83
13.95
12.84
12.47
12.59
12.91
13.17
13.26
13.17
12.91
12.49
11.86
10.95
9.74
8.23
6.41
4.26
1.78
-1.00
-3.94
-6.78
-9.26
-11.21
-12.61
-13.65
-14.54
-15.41
-16.32
-17.33
-18.54
-20.16
-22.30
-24.84
-27.31
-29.02
-29.30
-27.77
-24.48
-19.84
-14.46
-8.91
-3.60
1.12
4.99
7.81
9.43
9.96
9.72
9.19
8.79
8.79
9.13
9.60
9.90
9.84
9.37
8.60
7.66
6.64
5.56
4.44
3.33
2.32
1.51
0.98
0.70
0.57
0.40
-0.02
-0.83
-2.03
-3.45
-4.85
-6.01
-6.84
-7.44
-8.06
-8.95
-10.22
-11.79
-13.43
-14.90
-16.10
-17.02
-17.79
-18.49
-19.04
-19.24
-18.74
-17.24
-14.63
-11.07
-6.94
-2.82
0.79
3.58
5.45
6.52
6.97
6.94
6.51
5.72
4.67
3.59
2.77
2.45
2.70
3.42
4.31
5.06
5.46
5.56
5.55
5.67
6.00
6.39
6.54
6.16
5.21
3.91
2.59
1.56
0.84
0.23
-0.53
-1.61
-3.00
-4.51
-5.97
-7.36
-8.78
-10.44
-12.43
-14.71
-17.09
-19.36
-21.32
-22.86
-23.92
-24.45
-24.37
-23.56
-21.89
-19.26
-15.66
-11.26
-6.40
-1.59
2.64
5.88
7.93
8.89
9.05
8.78
8.39
8.09
7.99
8.16
8.62
9.36
10.32
11.32
12.19
12.78
13.00
12.85
12.43
11.84
11.21
10.64
10.20
9.90
9.74
9.65
9.56
9.37
9.04
8.48
7.70
6.75
5.73
4.75
3.93
3.33
2.95
2.75
2.65
2.60
2.61
2.77
3.20
3.99
5.20
6.88
9.22
12.50
16.98
22.55
28.50
33.54
36.10
34.91
29.55
20.49
8.70
-4.80
-19.28
-34.16
-48.45
-60.56
-68.50
-70.83
-67.41
-59.79
-50.65
-42.72
-37.76
-36.12
-37.10
-39.53
-42.43
-45.20
-47.48
-48.88
-48.93
-47.19
-43.45
-37.81
-30.49
-21.60
-10.81
2.25
17.21
32.30
43.99
47.82
39.82
18.42
-14.17
-51.86
-85.98
-107.68
-110.30
-90.91
-50.59
6.25
73.04
142.16
205.81
257.03
290.55
303.76
297.20
274.35
240.70
202.30
164.35
130.39
102.28
80.77
66.16
58.26
55.88
56.46
55.76
48.93
32.12
4.22
-32.05
-70.67
-104.25
-126.63
-134.86
-129.84
-115.18
-95.18
-73.04
-50.31
-27.55
-5.70
13.04
25.45
28.42
20.43
2.21
-23.74
-54.14
-86.17
-117.97
-148.47
-176.71
-201.32
-220.38
-231.76
-233.74
-225.50
-207.69
-182.40
-152.81
-122.62
-95.10
-72.22
-54.46
-41.03
-30.73
-22.74
-16.93
-13.72
-13.42
-15.69
-19.43
-23.03
-24.93
-24.09
-20.33
-14.13
-6.41
1.78
9.40
15.51
19.43
20.89
20.28
18.42
16.37
14.97
14.55
14.94
15.73
16.57
17.36
18.14
18.81
19.13
18.88
17.96
16.61
15.10
13.47
11.38
8.28
3.76
-2.07
-8.51
-14.61
-19.36
-22.21
-23.01
-21.93
-19.19
-15.05
-9.81
-3.98
1.74
6.66
10.22
12.30
13.16
13.38
13.60
14.22
15.28
16.44
17.27
17.40
16.83
15.82
14.82
14.24
14.30
15.05
16.24
17.57
18.64
19.15
18.90
17.84
16.09
13.84
11.35
8.84
6.55
4.62
3.09
1.79
0.40
-1.39
-3.71
-6.42
-9.16
-11.49
-13.13
-14.03
-14.33
-14.21
-13.68
-12.65
-11.02
-8.84
-6.41
-4.02
-1.82
0.35
2.88
6.11
10.04
14.22
17.94
20.57
21.83
21.92
21.28
20.41
19.53
18.67
17.77
16.89
16.22
15.94
16.09
16.49
16.87
16.98
16.78
16.41
16.05
15.75
15.36
14.59
13.22
11.26
8.87
6.39
4.11
2.16
0.48
-1.10
-2.78
-4.67
-6.77
-8.93
-10.95
-12.61
-13.80
-14.46
-14.59
-14.13
-12.92
-10.76
-7.55
-3.42
1.27
6.01
10.42
14.28
17.58
20.39
22.71
24.46
25.51
25.88
25.68
25.20
24.66
24.24
23.96
23.76
23.59
23.39
23.07
22.55
21.76
20.63
19.27
17.83
16.44
15.17
13.95
12.58
10.88
8.78
6.37
3.87
1.60
-0.20
-1.47
-2.33
-3.05
-3.93
-5.16
-6.76
-8.67
-10.79
-13.03
-15.32
-17.58
-19.61
-21.14
-21.87
-21.60
-20.28
-17.96
-14.78
-10.92
-6.66
-2.31
1.76
5.29
8.13
10.33
11.99
13.17
13.78
13.71
12.97
11.78
10.53
9.62
9.25
9.34
9.61
9.77
9.72
9.57
9.56
9.77
10.11
10.30
10.08
9.36
8.29
7.12
6.06
5.13
4.22
3.22
2.11
1.03
0.16
-0.46
-0.95
-1.60
-2.64
-4.18
-6.07
-8.07
-9.96
-11.62
-13.14
-14.76
-16.69
-18.96
-21.37
-23.48
-24.74
-24.75
-23.33
-20.64
-17.01
-12.83
-8.34
-3.74
0.86
5.29
9.28
12.59
15.06
16.65
17.47
17.67
17.43
16.93
16.34
15.84
15.60
15.63
15.85
16.02
15.87
15.26
14.19
12.87
11.59
10.58
9.92
9.55
9.28
8.89
8.32
7.61
6.86
6.09
5.22
4.04
2.35
0.12
-2.55
-5.38
-8.05
-10.31
-12.01
-13.12
-13.71
-14.01
-14.41
-15.28
-16.85
-18.98
-21.19
-22.69
-22.85
-21.34
-18.33
-14.41
-10.28
-6.52
-3.39
-0.85
1.29
3.21
5.00
6.72
8.35
9.89
11.33
12.67
13.83
14.73
15.21
15.16
14.64
13.79
12.90
12.26
12.14
12.68
13.85
15.44
17.17
18.75
19.74
19.77
18.65
16.67
14.58
13.34
13.68
15.80
19.25
22.70
24.61
23.96
20.90
16.76
13.36
12.06
13.26
16.51
20.22
22.58
22.26
19.16
14.33
9.41
5.93
5.01
7.03
10.50
12.05
7.12
-8.46
-36.86
-77.53
-127.34
-181.36
-228.96
-258.69
-262.58
-240.60
-200.23
-151.60
-102.64
-57.78
-18.80
13.67
38.91
56.42
66.48
70.70
71.62
71.76
72.70
74.92
78.09
81.26
83.60
84.75
84.99
84.77
84.30
82.93
79.63
73.48
64.22
52.33
38.56
23.71
8.11
-8.62
-27.30
-46.89
-67.45
-89.01
-111.12
-132.24
-149.17
-157.24
-152.08
-131.65
-97.99
-57.15
-17.05
15.47
37.02
48.12
51.81
51.12
47.61
41.24
31.77
20.22
9.08
1.66
0.47
6.71
19.34
35.26
49.66
57.40
54.65
40.63
18.36
-6.10
-25.40
-34.52
-32.77
-23.34
-11.05
0.38
9.81
18.34
27.39
37.09
45.73
50.91
51.28
47.73
43.04
40.45
42.36
48.85
57.74
65.48
68.86
65.94
57.03
44.06
29.39
14.70
0.26
-14.92
-31.87
-51.43
-73.71
-97.95
-122.66
-145.34
-162.36
-169.43
-163.02
-142.17
-109.91
-72.76
-38.60
-13.76
-0.79
1.74
-2.18
-8.56
-14.98
-20.96
-26.70
-31.83
-35.17
-34.74
-29.33
-19.13
-5.62
9.35
24.05
37.81
50.83
63.54
76.05
87.62
96.88
102.29
102.91
98.86
91.35
82.33
73.68
66.64
61.43
57.70
54.85
52.67
51.45
51.79
54.37
59.69
67.93
78.64
90.58
101.47
108.18
107.58
97.78
79.25
54.92
29.37
7.16
-8.58
-16.83
-18.21
-14.05
-5.55
6.36
20.53
35.36
48.67
58.40
63.43
63.90
61.16
57.21
54.34
54.14
57.29
62.62
67.77
69.89
66.85
58.16
45.11
32.10
23.15
20.78
23.69
28.50
31.47
30.54
26.03
19.68
12.90
5.09
-6.23
-26.09
-57.76
-100.96
-151.48
-203.06
-250.01
-289.05
-319.70
-343.12
-363.28
-383.03
-403.29
-422.95
-439.98
-452.70
-460.39
-463.29
-446.63
-402.30
-330.20
-239.54
-144.08
-55.68
19.47
80.40
129.10
168.36
197.87
216.77
224.59
222.46
213.10
200.14
187.20
176.89
170.31
164.87
157.41
144.23
123.40
94.29
57.48
14.27
-32.86
-79.46
-120.36
-149.63
-163.04
-160.36
-146.63
-130.42
-120.00
-119.40
-126.75
-136.50
-142.46
-141.21
-132.70
-120.03
-106.93
-95.30
-84.26
-71.40
-55.08
-35.68
-15.57
2.26
15.95
25.73
33.64
42.35
54.02
69.18
87.20
107.02
127.85
149.22
170.42
189.72
204.24
211.04
208.57
198.04
183.32
169.51
160.90
159.43
164.33
172.90
181.49
186.24
183.37
169.62
143.28
105.27
59.85
13.77
-25.99
-54.85
-71.92
-79.50
-81.06
-79.19
-74.97
-68.44
-59.63
-48.99
-37.11
-24.23
-10.09
5.54
21.97
37.56
50.62
60.72
69.56
80.07
94.24
110.85
124.86
129.13
117.98
90.31
50.71
7.93
-28.50
-51.74
-59.62
-54.26
-40.13
-21.63
-1.64
18.56
38.33
56.72
71.95
81.84
84.69
80.32
70.56
59.07
50.38
48.41
55.10
69.32
87.02
102.16
108.41
100.86
77.21
38.28
-12.35
-69.23
-126.35
-178.44
-221.88
-254.91
-277.27
-289.32
-291.39
-283.65
-266.38
-240.40
-207.14
-168.15
-124.22
-75.07
-19.83
41.54
106.74
170.55
225.70
264.90
283.04
278.64
254.15
215.08
168.41
121.03
78.42
43.87
18.33
0.76
-11.09
-19.66
-26.72
-33.01
-38.44
-42.68
-45.64
-47.56
-48.79
-49.52
-49.68
-49.10
-47.77
-45.98
-44.24
-43.09
-42.82
-43.35
-44.29
-45.15
-45.54
-45.32
-44.68
-44.06
-43.99
-44.90
-47.01
-50.17
-53.87
-57.33
-59.62
-59.94
-57.78
-53.10
-46.19
-37.67
-28.23
-18.49
-8.95
0.10
8.51
16.18
23.07
28.99
33.70
36.97
38.71
39.10
38.57
37.72
37.08
36.95
37.29
37.83
38.25
38.36
38.15
37.74
37.25
36.70
35.94
34.80
33.16
30.97
28.23
24.90
20.89
16.14
10.75
5.05
-0.49
-5.43
-9.59
-13.18
-16.60
-20.23
-24.09
-27.70
-30.31
-31.09
-29.55
-25.68
-19.92
-12.97
-5.62
1.47
7.86
13.37
18.00
21.89
25.15
27.82
29.81
31.01
31.38
31.05
30.21
29.09
27.88
26.72
25.72
25.03
24.73
24.85
25.22
25.49
25.30
24.40
22.76
20.58
18.16
15.69
13.24
10.73
8.02
5.03
1.75
-1.75
-5.39
-9.09
-12.82
-16.56
-20.28
-23.92
-27.45
-30.75
-33.62
-35.69
-36.47
-35.46
-32.35
-27.20
-20.44
-12.80
-5.01
2.37
9.05
14.94
20.01
24.20
27.39
29.49
30.55
30.73
30.26
29.32
28.12
26.80
25.58
24.65
24.12
24.01
24.15
24.35
24.38
24.18
23.74
23.16
22.49
21.67
20.61
19.20
17.36
15.14
12.63
10.00
7.42
5.04
2.95
1.11
-0.58
-2.27
-4.09
-6.14
-8.42
-10.91
-13.50
-16.11
-18.71
-21.27
-23.86
-26.56
-29.45
-32.50
-35.60
-38.43
-40.61
-41.70
-41.39
-39.53
-36.23
-31.83
-26.82
-21.70
-16.79
-12.12
-7.38
-2.18
3.82
10.67
18.11
25.65
32.73
38.97
44.14
48.30
51.72
54.97
58.72
63.62
69.92
77.28
84.87
91.69
97.06
100.80
102.93
103.02
99.61
90.52
73.70
48.64
17.12
-17.12
-49.85
-78.01
-100.59
-118.22
-131.79
-141.39
-145.95
-144.13
-135.41
-120.43
-100.57
-76.96
-50.12
-20.37
11.07
41.27
65.96
80.99
84.07
75.99
60.29
41.96
25.54
13.79
7.34
5.21
5.62
6.95
8.18
8.83
8.94
8.63
8.04
7.25
6.36
5.59
5.15
5.16
5.51
5.89
5.91
5.28
3.96
2.18
0.38
-1.01
-1.63
-1.42
-0.54
0.61
1.59
2.07
1.89
1.09
-0.11
-1.41
-2.55
-3.40
-3.96
-4.42
-4.96
-5.77
-6.84
-8.06
-9.25
-10.18
-10.80
-11.13
-11.35
-11.61
-12.07
-12.75
-13.64
-14.74
-16.01
-17.41
-18.86
-20.17
-21.08
-21.27
-20.46
-18.52
-15.50
-11.68
-7.45
-3.26
0.49
3.57
5.86
7.45
8.46
9.05
9.35
9.48
9.50
9.44
9.29
9.02
8.58
8.01
7.39
6.84
6.56
6.60
6.94
7.45
7.92
8.18
8.18
7.88
7.34
6.59
5.69
4.69
3.69
2.79
2.06
1.50
0.99
0.36
-0.55
-1.76
-3.19
-4.65
-5.98
-7.12
-8.11
-9.05
-10.05
-11.17
-12.40
-13.75
-15.14
-16.54
-17.76
-18.52
-18.47
-17.30
-14.88
-11.35
-7.08
-2.58
1.65
5.25
8.02
9.94
11.06
11.53
11.49
11.07
10.48
9.82
9.27
8.89
8.70
8.61
8.51
8.27
7.76
6.98
6.04
5.09
4.31
3.79
3.49
3.25
2.87
2.22
1.30
0.25
-0.76
-1.56
-2.06
-2.30
-2.40
-2.53
-2.83
-3.35
-4.10
-4.99
-5.94
-6.89
-7.78
-8.63
-9.45
-10.23
-10.97
-11.64
-12.24
-12.79
-13.32
-13.78
-14.05
-13.91
-13.17
-11.68
-9.44
-6.62
-3.52
-0.49
2.16
4.30
5.92
7.13
8.07
8.78
9.25
9.44
9.30
8.92
8.41
7.91
7.48
7.04
6.48
5.69
4.69
3.59
2.55
1.72
1.18
0.90
0.83
0.90
1.07
1.30
1.60
1.96
2.33
2.66
2.85
2.79
2.42
1.74
0.86
-0.11
-1.07
-1.97
-2.86
-3.78
-4.80
-5.98
-7.36
-8.95
-10.73
-12.57
-14.26
-15.59
-16.34
-16.40
-15.73
-14.35
-12.29
-9.61
-6.38
-2.81
0.82
4.16
6.88
8.80
9.88
10.18
9.88
9.17
8.24
7.22
6.28
5.51
5.03
4.91
5.12
5.55
5.99
6.22
6.10
5.65
5.07
4.58
4.36
4.38
4.44
4.32
3.88
3.11
2.13
1.09
0.06
-0.89
-1.81
-2.70
-3.59
-4.44
-5.24
-5.94
-6.48
-6.83
-6.95
-6.95
-6.99
-7.32
-8.09
-9.28
-10.74
-12.18
-13.33
-13.96
-13.97
-13.35
-12.13
-10.39
-8.22
-5.75
-3.13
-0.52
1.93
4.13
6.00
7.51
8.57
9.12
9.10
8.53
7.49
6.25
5.12
4.38
4.16
4.38
4.77
4.99
4.77
4.04
2.93
1.69
0.55
-0.32
-0.91
-1.26
-1.46
-1.55
-1.53
-1.43
-1.32
-1.28
-1.44
-1.84
-2.47
-3.21
-3.90
-4.44
-4.86
-5.28
-5.88
-6.77
-7.99
-9.41
-10.83
-12.03
-12.83
-13.14
-12.92
-12.23
-11.13
-9.65
-7.79
-5.56
-2.99
-0.19
2.67
5.39
7.79
9.75
11.25
12.25
12.75
12.71
12.20
11.36
10.42
9.60
9.07
8.78
8.56
8.22
7.66
6.98
6.40
6.10
6.11
6.27
6.30
5.98
5.23
4.15
2.94
1.71
0.52
-0.70
-2.01
-3.37
-4.65
-5.66
-6.32
-6.72
-7.05
-7.59
-8.53
-9.87
-11.45
-12.98
-14.17
-14.82
-14.90
-14.49
-13.74
-12.76
-11.59
-10.22
-8.60
-6.70
-4.54
-2.17
0.32
2.85
5.29
7.52
9.43
10.91
11.91
12.43
12.54
12.33
11.88
11.28
10.61
9.97
9.45
9.07
8.85
8.67
8.44
8.01
7.29
6.22
4.84
3.28
1.73
0.39
-0.61
-1.27
-1.69
-2.09
-2.69
-3.66
-5.02
-6.66
-8.36
-9.91
-11.16
-12.09
-12.77
-13.31
-13.73
-14.01
-14.05
-13.81
-13.25
-12.46
-11.46
-10.17
-8.48
-6.27
-3.55
-0.59
2.28
4.67
6.39
7.42
7.92
8.09
8.11
8.02
7.79
7.43
6.90
6.25
5.50
4.71
3.93
3.22
2.61
2.12
1.77
1.52
1.36
1.22
1.06
0.77
0.33
-0.28
-1.04
-1.87
-2.76
-3.73
-4.86
-6.24
-7.85
-9.60
-11.29
-12.78
-14.03
-15.15
-16.24
-17.32
-18.17
-18.38
-17.51
-15.35
-12.12
-8.38
-4.82
-1.97
0.06
1.62
3.31
5.66
8.89
12.71
16.52
19.66
