1675497356.00
64.000000
-0.00
-0.00
-0.00
-0.00
-0.00
-0.00
-0.00
-0.00
-0.00
-0.00
0.00
0.01
0.01
-0.00
-0.03
-0.05
-0.05
0.00
0.13
0.36
0.66
1.01
1.37
1.72
2.06
2.40
2.79
3.24
3.80
4.43
5.08
5.71
6.29
6.84
7.42
8.10
8.94
10.03
11.30
12.63
13.91
15.09
16.21
17.43
18.96
20.95
23.64
26.83
30.25
33.59
36.68
39.59
42.60
46.17
50.61
56.31
62.94
70.01
76.97
83.49
89.65
95.95
103.13
111.72
122.29
134.38
147.21
159.93
171.96
183.32
194.63
207.23
219.86
234.84
252.82
273.95
297.03
319.09
335.72
342.19
335.09
313.57
280.09
238.61
193.54
148.14
103.83
60.67
18.28
-23.28
-63.34
-100.56
-134.46
-165.04
-192.87
-218.69
-243.03
-266.06
-287.57
-307.43
-325.44
-341.94
-357.44
-372.22
-386.60
-400.99
-415.97
-432.20
-450.21
-469.74
-489.62
-507.53
-520.35
-524.84
-518.21
-498.60
-465.29
-418.93
-361.41
-295.85
-226.01
-155.63
-87.82
-24.56
33.07
84.47
129.03
166.06
195.21
216.97
232.94
245.26
255.95
266.07
275.48
283.25
288.36
290.30
289.22
285.77
280.41
273.30
264.14
252.55
238.34
221.85
204.17
186.92
171.90
160.26
152.00
145.49
137.96
126.45
109.02
85.70
58.38
30.02
3.12
-21.30
-44.17
-67.65
-94.18
-125.35
-161.18
-199.95
-238.31
-271.78
-295.75
-306.88
-304.73
-292.78
-278.29
-270.38
-276.80
-300.52
-337.91
-379.61
-413.83
-430.88
-426.50
-402.85
-366.63
-325.84
-286.72
-252.40
-223.28
-198.48
-177.15
-158.82
-143.00
-128.60
-113.82
-96.73
-76.08
-51.83
-25.02
2.82
30.52
57.86
85.54
114.61
145.65
178.10
209.96
238.27
259.94
273.00
277.43
275.38
270.27
265.19
261.30
256.89
248.18
231.34
205.14
172.27
138.87
112.11
97.11
95.04
103.10
116.41
130.38
142.39
151.89
159.25
164.67
167.43
166.35
160.47
149.80
135.47
119.22
102.85
87.49
73.49
60.47
47.81
35.19
22.96
12.27
4.67
1.44
2.96
8.52
16.54
25.19
33.02
39.31
44.18
48.25
52.27
56.73
61.62
66.33
69.92
71.37
69.95
65.65
59.27
52.24
46.18
42.25
40.74
40.93
41.44
40.69
37.79
32.94
27.36
22.43
19.12
17.25
15.45
11.62
3.47
-11.01
-33.15
-63.16
-99.50
-138.26
-173.37
-197.85
-205.27
-193.60
-166.09
-130.00
-93.70
-63.46
-41.76
-27.73
-19.10
-14.24
-13.05
-15.91
-22.32
-30.13
-36.12
-37.70
-34.46
-28.59
-23.69
-23.36
-29.06
-39.43
-50.86
-58.88
-59.64
-50.73
-31.57
-3.71
29.41
62.70
90.37
107.48
111.81
104.84
91.31
77.09
66.67
61.47
60.00
59.49
57.62
53.38
46.40
35.76
19.44
-5.38
-41.01
-87.82
-143.08
-200.60
-251.20
-284.92
-294.02
-276.15
-235.91
-183.86
-132.89
-93.43
-69.79
-59.43
-55.37
-50.15
-39.16
-21.87
-0.53
22.19
44.90
67.63
90.76
113.67
134.31
149.86
157.89
157.69
150.63
139.65
128.04
118.18
110.85
105.19
99.50
92.19
82.63
71.40
59.92
49.76
41.92
36.49
32.71
29.44
25.66
20.94
15.52
10.06
5.44
2.10
0.01
-1.20
-2.08
-3.11
-4.51
-6.19
-7.93
-9.43
-10.51
-11.13
-11.39
-11.40
-11.33
-11.25
-11.18
-11.10
-10.98
-10.83
-10.61
-10.33
-10.01
-9.64
-9.25
-8.82
-8.38
-7.94
-7.51
-7.09
-6.70
-6.33
-5.97
-5.64
-5.33
-5.04
-4.77
-4.52
-4.29
-4.08
-3.89
-3.71
-3.54
-3.38
-3.23
-3.09
-2.96
-2.84
-2.72
-2.62
-2.52
-2.42
-2.33
-2.25
-2.16
-2.09
-2.01
-1.94
-1.88
-1.81
-1.75
-1.69
-1.63
-1.58
-1.53
-1.48
-1.43
-1.39
-1.34
-1.30
-1.26
-1.22
-1.18
-1.15
-1.11
-1.08
-1.05
-1.02
-0.99
-0.96
-0.94
-0.91
-0.89
-0.86
-0.84
-0.82
-0.79
-0.77
-0.75
-0.73
-0.71
-0.70
-0.68
-0.66
-0.65
-0.63
-0.61
-0.60
-0.58
-0.56
-0.54
-0.51
-0.48
-0.43
-0.38
-0.33
-0.26
-0.18
-0.09
-0.00
0.09
0.20
0.30
0.41
0.51
0.62
0.72
0.84
0.97
1.14
1.31
1.47
1.59
1.65
1.68
1.68
1.75
1.89
2.16
2.52
2.93
3.33
3.69
4.01
4.35
4.77
5.34
6.09
6.99
7.92
8.79
9.54
10.18
10.81
11.62
12.74
14.23
15.97
17.71
19.19
20.26
20.98
21.63
22.59
24.19
26.53
29.36
32.08
34.09
34.97
34.66
33.47
31.95
30.50
29.10
27.16
23.59
17.41
8.15
-3.85
-17.45
-31.11
-43.59
-54.16
-62.51
-69.52
-75.81
-81.87
-88.07
-94.86
-102.44
-110.10
-115.78
-115.68
-106.27
-85.96
-56.59
-23.35
7.05
29.10
40.52
42.72
39.45
34.53
30.52
28.15
27.03
26.58
26.49
26.64
26.83
26.75
25.92
24.33
22.17
20.02
18.57
18.63
20.76
24.62
28.26
28.33
21.59
6.94
-13.02
-32.42
-44.53
-45.04
-34.37
-17.38
-0.81
10.17
14.10
13.11
10.75
9.53
9.75
10.03
8.94
6.21
2.98
0.85
0.80
2.82
5.78
8.06
8.55
7.04
4.21
1.36
-0.33
-0.28
1.30
3.50
5.21
5.65
4.69
2.78
0.78
-0.54
-0.73
0.13
1.52
2.74
3.26
2.83
1.62
0.11
-1.13
-1.65
-1.27
-0.18
1.11
2.00
1.99
0.90
-0.96
-2.95
-4.33
-4.52
-3.50
-1.78
-0.33
-0.08
-1.54
-4.45
-7.87
-10.57
-11.52
-10.52
-8.33
-6.36
-5.97
-7.96
-12.09
-17.33
-22.38
-25.89
-26.84
-24.51
-18.77
-10.67
-2.98
0.12
-5.51
-21.97
-47.23
-75.49
-99.03
-111.24
-109.26
-94.71
-72.34
-47.02
-23.01
-1.84
16.59
32.49
45.27
53.80
57.31
56.40
52.65
48.14
44.89
43.62
43.85
44.29
43.59
41.00
36.75
31.79
27.30
24.31
23.06
23.03
23.27
22.84
21.26
18.67
15.64
12.91
11.05
10.16
9.93
9.79
9.25
8.12
6.58
5.01
3.80
3.20
3.09
3.12
2.88
2.12
0.92
-0.35
-1.23
-1.38
-0.81
0.10
0.75
0.62
-0.48
-2.21
-3.86
-4.63
-4.04
-2.20
0.17
2.01
2.49
1.32
-1.00
-3.32
-4.50
-3.82
-1.33
2.12
5.44
7.66
7.94
5.77
1.01
-5.66
-12.18
-15.23
-11.26
1.79
22.93
47.70
69.81
83.52
86.01
78.16
63.58
46.53
29.77
14.86
1.59
-10.39
-20.72
-28.40
-32.56
-33.23
-31.55
-29.17
-27.58
-27.59
-28.87
-30.42
-31.08
-30.14
-27.61
-24.18
-20.74
-18.02
-16.30
-15.26
-14.24
-12.63
-10.17
-7.09
-3.94
-1.36
0.20
0.54
-0.21
-1.68
-3.58
-5.67
-7.85
-10.09
-12.33
-14.45
-16.32
-17.81
-18.93
-19.87
-20.91
-22.31
-24.10
-26.04
-27.74
-28.80
-29.13
-29.07
-29.25
-30.31
-32.51
-35.40
-37.73
-37.97
-34.82
-27.88
-17.88
-6.50
4.43
13.69
21.09
27.58
34.46
42.59
51.44
58.90
62.09
58.50
47.60
30.81
12.27
-3.67
-13.50
-15.85
-11.13
-0.64
13.81
29.73
43.30
49.92
46.26
33.31
17.51
8.58
14.58
36.52
66.54
91.17
98.40
83.41
52.83
20.01
-2.76
-10.26
-5.79
2.48
7.31
5.96
-0.15
-8.24
-16.75
-26.27
-37.33
-48.67
-56.69
-57.17
-47.87
-29.91
-8.63
9.67
20.33
22.01
16.50
7.23
-2.53
-10.68
-16.27
-19.04
-18.86
-16.03
-11.40
-6.41
-2.60
-1.00
-1.74
-4.00
-6.43
-7.73
-7.21
-5.01
-1.92
0.99
2.80
3.12
2.19
0.66
-0.61
-1.00
-0.32
1.16
2.86
4.20
4.76
4.53
3.76
2.90
2.37
2.35
2.79
3.42
3.95
4.14
3.95
3.45
2.83
2.22
1.72
1.32
1.01
0.77
0.54
0.30
-0.02
-0.52
-1.29
-2.36
-3.70
-5.22
-6.78
-8.32
-9.86
-11.51
-13.46
-15.85
-18.78
-22.17
-25.84
-29.58
-33.26
-36.93
-40.86
-45.42
-50.98
-57.66
-65.22
-73.08
-80.57
-87.23
-93.00
-98.30
-103.77
-109.91
-116.57
-122.74
-126.77
-126.85
-121.92
-112.09
-98.99
-84.90
-72.07
-61.68
-53.34
-45.32
-35.37
-22.03
-5.33
13.06
30.64
45.51
57.56
68.87
82.83
102.88
130.94
166.99
209.27
254.46
296.90
329.41
344.00
334.27
299.79
246.41
185.86
131.87
94.62
76.63
72.60
72.94
69.18
57.29
38.55
16.79
-5.20
-27.42
-51.83
-79.63
-109.48
-137.32
-157.81
-166.55
-161.64
-144.27
-118.75
-91.60
-69.81
-59.21
-62.44
-77.76
-99.20
-118.65
-128.97
-126.74
-113.03
-91.89
-67.86
-43.81
-20.52
2.23
24.12
43.48
57.82
65.18
65.35
60.13
52.62
45.99
42.16
41.26
42.04
42.43
40.80
36.66
30.72
24.48
19.42
16.39
15.30
15.31
15.27
14.28
12.09
9.03
5.84
3.23
1.61
0.94
0.85
0.79
0.38
-0.53
-1.80
-3.11
-4.18
-4.83
-5.06
-5.00
-4.86
-4.78
-4.82
-4.97
-5.16
-5.32
-5.42
-5.43
-5.37
-5.25
-5.11
-4.93
-4.73
-4.53
-4.31
-4.10
-3.89
-3.68
-3.49
-3.32
-3.15
-2.99
-2.85
-2.71
-2.58
-2.46
-2.35
-2.25
-2.15
-2.05
-1.97
-1.88
-1.80
-1.73
-1.66
-1.59
-1.53
-1.47
-1.41
-1.36
-1.31
-1.26
-1.21
-1.17
-1.13
-1.09
-1.05
-1.02
-0.98
-0.94
-0.91
-0.88
-0.85
-0.83
-0.80
-0.77
-0.75
-0.72
-0.71
-0.69
-0.66
-0.64
-0.62
-0.60
-0.59
-0.57
-0.55
-0.54
-0.52
-0.51
-0.49
-0.48
-0.47
-0.46
-0.45
-0.43
-0.42
-0.40
-0.40
-0.40
-0.39
-0.38
-0.36
-0.32
-0.28
-0.25
-0.29
-0.39
-0.56
-0.77
-0.94
-1.06
-1.08
-1.03
-0.96
-0.92
-0.96
-1.09
-1.26
-1.43
-1.52
-1.49
-1.38
-1.25
-1.22
-1.35
-1.65
-2.05
-2.39
-2.53
-2.41
-2.11
-1.86
-1.91
-2.47
-3.51
-4.79
-5.90
-6.46
-6.31
-5.67
-5.02
-4.99
-5.98
-7.98
-10.49
-12.70
-13.88
-13.68
-12.46
-11.13
-10.70
-11.93
-14.82
-18.59
-21.97
-23.95
-23.96
-22.37
-20.14
-18.40
-18.10
-19.90
-24.15
-30.60
-37.78
-42.71
-41.50
-30.74
-9.31
20.48
53.30
82.74
103.79
114.45
115.77
110.53
101.74
91.46
80.86
71.08
63.44
59.28
58.86
60.69
61.53
57.79
46.70
27.95
4.37
-19.07
-36.97
-45.43
-43.57
-33.78
-20.73
-9.63
-4.47
-6.83
-15.67
-27.61
-37.67
-41.07
-35.23
-21.26
-4.12
9.08
11.75
1.06
-20.24
-44.64
-62.82
-66.94
-53.42
-24.00
14.53
52.70
81.40
94.80
92.15
77.76
59.28
44.40
37.49
37.56
39.85
39.64
35.14
28.08
22.05
19.83
21.40
23.91
22.51
13.19
-3.70
-23.23
-39.23
-47.59
-47.95
-43.06
-37.02
-34.61
-40.09
-52.60
-66.63
-76.34
-79.31
-76.74
-72.24
-61.12
-42.36
-19.46
5.17
30.33
53.08
67.83
69.50
56.68
31.85
-2.37
-49.40
-110.41
-181.21
-254.46
-322.06
-375.24
-406.03
-409.67
-355.60
-250.64
-135.93
-49.15
-0.07
20.97
28.09
31.25
34.51
36.55
29.69
11.97
-10.39
-29.05
-39.62
-42.19
-39.77
-35.52
-32.46
-36.16
-47.46
-61.46
-72.37
-77.64
-78.08
-76.44
-74.72
-74.72
-79.68
-89.64
-100.92
-109.09
-111.23
-105.43
-97.01
-88.19
-80.38
-75.41
-73.45
-72.99
-72.29
-70.72
-68.62
-66.88
-65.27
-63.61
-62.02
-60.18
-57.40
-53.19
-47.66
-41.34
-34.90
-28.05
-20.41
-11.57
-1.24
10.51
23.24
36.13
48.32
59.14
68.82
77.91
87.11
96.92
107.38
117.98
127.86
136.16
142.49
147.29
151.54
156.49
163.36
173.12
186.32
202.69
220.90
238.33
251.59
257.35
253.72
241.24
222.95
203.27
186.25
174.02
166.32
161.22
156.56
151.20
145.36
140.00
135.81
132.54
129.16
124.45
117.70
109.18
99.90
91.07
83.57
77.67
73.06
69.14
65.32
61.29
56.96
52.44
47.89
43.29
38.50
33.31
27.60
21.52
15.52
10.26
6.39
4.28
3.92
4.94
6.73
8.60
9.91
10.18
9.08
6.51
2.71
-1.82
-6.27
-9.84
-12.03
-12.94
-13.29
-14.08
-16.21
-20.02
-25.13
-30.71
-35.83
-39.92
-42.88
-44.94
-46.39
-47.40
-47.92
-47.76
-46.68
-44.48
-41.01
-36.19
-30.10
-22.94
-15.13
-7.26
0.15
6.81
12.83
18.65
24.93
32.20
40.70
50.26
60.38
70.30
79.14
85.89
89.53
89.10
84.02
74.33
60.88
45.02
28.34
12.10
-2.98
-16.63
-28.69
-38.85
-46.51
-51.04
-52.20
-50.35
-46.51
-41.99
-38.08
-35.66
-35.18
-36.68
-40.02
-44.95
-51.09
-57.92
-64.66
-70.35
-73.99
-74.78
-72.41
-67.14
-59.82
-51.56
-43.41
-36.01
-29.37
-23.04
-16.41
-9.11
-1.26
6.55
13.50
19.08
23.42
27.29
31.79
37.72
45.16
53.49
61.72
69.13
75.51
80.74
84.24
84.51
79.26
66.33
44.75
15.09
-20.99
-61.55
-104.78
-148.37
-188.44
-219.01
-232.71
-223.35
-188.85
-133.21
-65.98
0.39
54.19
87.49
97.34
85.42
56.50
16.87
-26.69
-67.84
-101.01
-122.11
-129.14
-122.55
-104.88
-80.03
-52.03
-23.92
2.93
29.55
58.96
94.74
138.84
189.99
243.51
292.82
331.88
356.36
364.92
358.73
340.17
311.55
275.05
233.28
189.54
147.43
108.12
71.89
39.15
10.75
-12.55
-30.84
-45.62
-60.26
-79.10
-108.31
-149.42
-196.11
-235.81
-255.20
-245.49
-205.39
-141.74
-67.55
-2.77
36.61
44.97
26.71
-9.21
-54.03
-101.29
-147.33
-190.53
-236.15
-287.05
-339.97
-388.18
-427.59
-459.32
-487.57
-516.26
-509.44
-446.94
-340.00
-220.41
-112.25
-23.79
44.54
94.03
126.59
145.05
146.86
132.57
109.34
86.76
71.89
67.33
71.69
80.49
87.34
81.33
57.32
19.81
-19.23
-46.95
-54.23
-38.55
-4.34
41.84
81.18
98.04
91.87
73.14
52.30
34.03
18.42
4.54
-7.43
-17.11
-23.43
-24.51
-20.61
-14.53
-9.74
-8.02
-8.46
-7.73
-1.86
10.60
31.43
58.93
87.04
106.69
108.80
87.69
43.69
-16.43
-80.90
-136.68
-175.23
-194.80
-199.16
-194.28
-184.72
-171.50
-152.79
-125.88
-89.50
-46.14
-1.26
38.95
70.17
91.34
104.53
113.30
120.70
127.99
133.85
135.52
130.71
119.31
103.97
89.20
79.41
77.12
82.10
91.67
102.11
110.26
114.45
114.89
112.96
110.43
108.65
108.11
108.47
108.90
108.70
107.85
107.09
107.51
109.72
113.29
116.95
119.53
120.80
121.57
122.75
124.04
123.53
118.43
106.94
90.04
72.17
59.47
57.02
66.15
83.51
103.21
119.36
128.12
128.57
122.68
113.33
102.81
91.89
79.35
64.12
45.61
23.59
-2.10
-30.45
-60.35
-90.94
-122.44
-156.80
-193.79
-230.63
-262.61
-284.93
-293.50
-288.55
-274.86
-260.21
-252.70
-252.90
-254.01
-246.02
-221.60
-178.28
-120.82
-58.04
6.49
59.66
92.19
107.33
119.56
133.80
152.70
170.51
180.27
177.66
156.86
120.40
76.69
35.14
1.09
-24.03
-43.18
-60.14
-77.28
-97.39
-118.70
-137.20
-150.36
-159.82
-169.15
-182.51
-201.29
-209.04
-195.23
-159.61
-111.58
-61.93
-18.12
16.66
41.54
58.34
70.18
77.53
81.21
82.64
83.38
84.06
84.55
83.78
81.73
78.83
73.78
65.82
55.36
43.84
32.68
22.61
13.20
4.75
-2.22
-8.55
-14.95
-21.40
-27.06
-31.01
-27.39
-17.11
-2.76
13.09
27.91
40.05
49.14
55.87
61.35
65.33
67.26
66.42
61.71
51.73
35.51
13.07
-14.47
-40.84
-62.95
-80.03
-92.36
-100.84
-106.67
-110.94
-114.66
-118.70
-123.36
-128.46
-131.96
-129.76
-117.43
-92.82
-57.85
-18.38
17.96
45.04
60.03
64.36
62.27
58.05
54.07
50.48
46.50
41.79
37.21
33.92
32.80
33.68
35.34
36.21
34.99
31.54
26.79
22.23
19.11
17.96
18.50
19.69
20.33
19.58
17.35
14.21
11.12
8.89
7.89
7.94
8.45
8.73
8.28
7.05
5.32
3.57
2.21
1.44
1.21
1.28
1.35
1.21
0.82
0.27
-0.34
-0.90
-1.36
-1.72
-1.99
-2.21
-2.39
-2.56
-2.76
-3.07
-3.53
-4.16
-4.92
-5.70
-6.40
-6.95
-7.37
-7.79
-8.41
-9.39
-10.74
-12.34
-13.90
-15.13
-15.83
-16.08
-16.22
-16.75
-18.08
-20.27
-23.06
-25.85
-27.94
-28.91
-28.82
-28.21
-27.88
-28.41
-29.69
-30.99
-31.01
-28.47
-22.57
-13.51
-2.43
9.04
19.56
28.58
36.39
43.96
52.41
62.62
75.09
89.99
106.78
122.88
135.09
139.04
130.94
109.89
78.97
44.62
14.31
-6.56
-16.59
-18.00
-14.92
-10.86
-7.23
-3.60
0.81
6.08
11.15
14.54
15.60
14.85
13.74
14.03
16.65
21.10
25.74
28.42
27.22
21.35
11.24
-1.87
-16.32
-30.79
-44.75
-58.20
-71.04
-83.85
-96.72
-109.23
-120.84
-129.08
-131.74
-127.30
-115.23
-96.15
-71.82
-44.89
-18.89
2.09
14.31
15.39
5.35
-13.04
-35.18
-56.23
-72.31
-81.31
-82.45
-75.63
-61.30
-40.74
-16.49
7.58
27.44
40.73
47.60
50.38
52.07
54.58
57.97
61.02
62.45
62.05
60.68
59.40
58.30
56.18
51.04
41.17
26.21
7.21
-13.60
-33.72
-50.60
-61.90
-65.34
-59.32
-43.76
-20.59
6.48
33.14
55.52
71.23
79.66
81.88
80.02
76.85
75.63
78.02
86.39
102.19
125.20
153.21
182.71
209.89
231.97
248.01
258.68
265.35
268.41
266.42
256.31
234.82
200.34
154.38
101.76
48.85
1.30
-37.89
-68.70
-92.80
-111.93
-126.93
-137.81
-144.34
-147.10
-148.23
-150.76
-157.67
-170.98
-191.42
-218.22
-249.16
-280.66
-308.16
-327.84
-336.54
-332.20
-313.69
-281.11
-236.31
-183.10
-126.66
-72.55
-26.80
6.32
24.81
29.64
23.81
11.13
-4.74
-20.43
-25.49
-12.38
20.96
68.02
118.16
162.18
195.48
217.86
231.59
239.01
241.12
237.22
224.32
200.68
166.86
125.42
79.30
30.26
-17.90
-64.20
-108.82
-154.52
-203.00
-253.28
-301.76
-343.66
-374.62
-391.70
-394.72
-369.61
-312.24
-229.67
-137.22
-50.31
22.10
78.00
119.62
149.81
170.66
180.76
178.39
163.10
136.17
100.00
56.82
8.94
-40.88
-88.64
-124.95
-142.58
-139.19
-118.60
-89.17
-60.54
-39.52
-28.06
-23.80
-23.70
-25.86
-29.56
-34.94
-40.55
-44.48
-44.98
-41.32
-34.16
-25.82
-18.91
-14.95
-13.47
-12.22
-8.62
-0.56
13.11
32.78
55.48
78.89
101.74
124.43
149.00
178.34
214.75
258.35
305.69
349.66
381.34
392.67
379.51
343.26
290.15
228.74
166.82
109.20
57.06
9.26
-36.31
-81.06
-124.99
-166.82
-204.65
-236.58
-260.80
-275.52
-278.65
-268.50
-244.65
-209.06
-166.27
-122.39
-83.37
-53.16
-32.80
-20.36
-12.34
-4.89
5.17
20.10
41.25
69.44
105.16
148.30
197.63
250.11
300.25
340.39
362.43
359.95
330.26
274.92
198.85
108.82
12.45
-82.08
-165.96
-230.65
-269.98
-282.34
-271.78
-246.70
-216.48
-187.86
-163.08
-140.43
-116.42
-87.71
-52.45
-10.48
36.93
87.33
136.84
180.16
211.59
226.80
224.19
205.47
174.67
136.72
96.61
59.06
28.25
7.58
-1.00
2.24
14.80
32.18
49.28
61.99
68.23
67.70
61.51
51.60
40.26
29.90
21.88
16.08
10.96
4.65
-4.22
-15.75
-28.88
-43.25
-56.80
-67.52
-74.92
-80.80
-86.48
-92.05
-97.58
-103.47
-111.79
-125.47
-147.92
-181.48
-225.60
-275.61
-323.32
-359.18
-375.21
-367.97
-339.59
-296.99
-248.79
-201.80
-158.85
-119.29
-81.01
-42.31
-2.77
37.22
76.71
114.18
146.92
171.09
182.70
179.36
162.14
135.55
105.62
77.07
51.58
28.41
5.98
-16.63
-39.46
-61.96
-83.94
-105.57
-126.46
-144.68
-156.50
-157.79
-146.22
-122.98
-92.49
-61.08
-34.95
-18.25
-12.01
-13.60
-18.25
-20.77
-17.97
-8.55
6.44
24.61
43.50
61.36
78.21
93.76
106.21
111.04
105.49
89.88
68.38
46.94
31.15
26.20
33.15
48.46
63.07
71.26
71.78
67.95
64.12
63.71
71.37
88.63
113.48
136.82
154.19
165.88
176.62
191.35
214.21
252.56
311.18
389.84
476.46
560.26
632.18
686.88
720.71
704.43
622.25
477.63
330.02
203.00
101.72
11.76
-72.88
-154.66
-232.48
-297.83
-341.79
-359.38
-358.26
-346.64
-333.16
-324.07
-323.84
-332.51
-342.16
-343.35
-330.16
-307.51
-280.68
-253.20
-223.89
-189.16
-144.96
-88.38
-23.29
38.84
79.63
86.32
56.43
-0.69
-68.85
-130.73
-172.46
-188.07
-179.53
-155.31
-123.60
-89.94
-56.42
-23.37
9.68
43.99
81.14
122.65
168.58
217.57
265.72
306.95
334.43
343.10
331.72
303.49
264.51
221.32
178.70
138.76
101.52
66.26
32.54
0.43
-29.88
-58.38
-85.05
-109.40
-130.18
-145.72
-154.54
-156.12
-151.33
-142.27
-131.73
-122.28
-115.44
-111.24
-108.25
-104.31
-97.54
-87.34
-74.62
-61.40
-49.78
-40.79
-34.07
-28.17
-21.62
-13.91
-5.95
0.41
3.09
0.68
-7.18
-19.83
-35.99
-54.18
-72.95
-90.81
-106.28
-118.08
-125.59
-129.01
-129.20
-126.92
-121.90
-112.59
-96.76
-72.91
-41.79
-6.86
26.64
53.86
72.47
83.51
90.26
96.06
102.10
106.81
107.05
100.36
86.72
69.01
51.66
38.30
30.07
25.21
20.34
12.54
0.92
-12.96
-26.11
-35.68
-40.29
-40.40
-37.75
-34.47
-32.01
-30.76
-30.18
-29.29
-27.36
-24.19
-20.27
-16.45
-13.58
-12.12
-12.05
-12.97
-14.36
-15.85
-17.28
-18.65
-19.92
-20.88
-21.01
-19.68
-16.46
-11.43
-5.36
0.44
4.62
6.36
5.80
3.88
1.97
1.05
1.27
1.75
1.06
-2.14
-8.31
-16.91
-26.62
-36.09
-44.57
-52.22
-59.91
-68.48
-78.23
-88.66
-98.71
-107.39
-114.00
-118.04
-118.79
-115.03
-105.50
-89.93
-69.80
-48.29
-29.41
-16.40
-10.62
-11.31
-16.16
-22.57
-28.37
-31.99
-32.27
-28.16
-18.85
-4.37
14.03
34.00
52.84
68.50
80.33
89.39
98.08
109.58
126.80
151.08
180.96
211.72
236.31
247.66
241.68
219.38
186.90
152.99
125.11
106.34
94.74
85.50
74.30
59.56
42.34
24.50
6.55
-12.78
-35.31
-61.41
-89.00
-114.15
-133.21
-144.72
-150.06
-152.45
-155.12
-159.69
-165.87
-172.01
-176.10
-176.35
-171.33
-159.76
-140.63
-113.39
-78.25
-36.27
10.77
60.76
111.53
161.09
207.56
249.18
284.41
312.24
332.50
346.00
354.14
358.25
358.84
355.32
346.19
329.98
306.19
276.03
242.17
208.03
176.37
148.42
123.56
99.75
74.31
44.56
8.34
-35.26
-84.96
-136.68
-183.54
-217.09
-229.75
-217.29
-180.69
-126.05
-62.83
-0.92
51.86
90.95
114.71
123.15
116.90
97.01
65.60
26.49
-14.86
-52.79
-83.41
-106.14
-124.15
-142.64
-166.36
-197.06
-232.49
-267.24
-295.13
-311.47
-314.82
-306.93
-291.58
-272.80
-253.34
-234.26
-215.54
-197.21
-180.18
-166.33
-157.55
-154.35
-154.98
-155.59
-151.78
-140.44
-121.19
-96.47
-70.34
-46.59
-27.10
-11.47
2.08
15.25
28.52
40.94
51.14
58.42
63.56
68.40
74.75
83.18
92.54
100.54
105.01
105.03
101.37
95.88
90.47
86.11
82.64
79.29
75.44
71.19
67.43
65.29
65.60
68.35
72.80
77.86
82.57
86.51
89.85
93.15
97.02
101.90
108.08
115.79
125.16
135.87
146.81
155.81
159.94
156.41
143.65
121.89
93.11
60.21
25.99
-7.55
-39.35
-68.80
-95.19
-117.39
-134.03
-143.94
-146.61
-142.42
-132.28
-117.26
-98.21
-75.75
-50.64
-24.29
1.10
22.63
37.63
44.78
44.82
40.32
34.68
30.52
28.88
29.26
30.29
31.04
31.71
33.48
37.50
43.96
51.30
56.91
58.09
52.33
38.01
14.93
-15.11
-48.22
-78.22
-98.85
-105.16
-95.23
-72.17
-43.38
-18.00
-3.43
-2.40
-11.29
-22.87
-28.64
-22.57
-4.81
18.49
38.58
48.39
45.62
33.73
17.89
2.78
-3.19
5.41
29.27
64.35
104.72
140.63
172.09
199.24
220.08
231.31
231.35
219.61
198.08
170.81
142.00
114.94
89.50
63.67
35.20
2.04
-36.69
-79.59
-122.76
-160.69
-187.42
-199.94
-198.54
-186.33
-168.19
-148.75
-130.38
-113.04
-95.75
-78.26
-63.11
-54.58
-56.67
-71.51
-98.24
-132.99
-170.02
-203.01
-226.12
-235.25
-228.42
-206.28
-172.08
-130.98
-88.42
-48.71
-14.52
12.77
31.71
40.42
37.01
21.18
-4.64
-35.37
-65.08
-89.59
-108.11
-122.99
-137.38
-152.25
-164.81
-169.29
-159.97
-134.46
-95.56
-50.72
-9.21
21.52
38.41
43.95
45.01
50.22
66.72
97.27
138.77
183.00
219.43
238.84
236.57
213.66
175.50
128.95
79.44
29.75
-19.05
-65.88
-108.37
-143.27
-168.13
-183.10
-191.27
-196.88
-202.76
-208.19
-208.74
-198.29
-172.18
-129.97
-76.69
-21.91
22.71
46.88
45.28
19.89
-19.97
-60.42
-87.73
-93.20
-75.95
-42.45
-3.21
31.76
56.41
69.63
73.92
72.99
70.03
66.96
64.74
63.94
64.93
67.73
71.97
77.38
84.00
92.43
103.53
117.58
133.33
147.80
156.61
155.38
141.42
114.84
78.85
38.78
0.59
-30.79
-52.41
-63.58
-65.58
-61.01
-53.39
-46.59
-44.04
-47.77
-57.59
-70.76
-82.65
-88.46
-85.29
-73.95
-59.50
-50.01
-53.79
-75.84
-115.36
-165.29
-214.56
-251.98
-270.30
-268.28
-250.14
-222.87
-192.90
-163.95
-136.77
-110.47
-84.18
-58.09
-33.24
-10.62
9.74
29.02
49.07
71.51
97.03
125.33
155.48
186.39
217.15
247.00
274.93
299.52
319.00
331.71
336.71
334.33
326.17
314.54
301.59
288.39
274.58
258.83
239.81
217.08
191.55
165.04
139.47
116.11
95.30
76.75
60.07
45.17
32.17
21.10
11.74
3.78
-2.79
-7.41
-9.12
-7.17
-1.72
5.85
13.27
18.08
18.52
14.21
6.14
-3.90
-14.03
-22.98
-30.30
-36.25
-41.46
-46.66
-52.54
-59.45
-67.11
-74.37
-79.30
-79.80
-74.68
-64.56
-52.39
-42.86
-41.09
-50.93
-73.37
-105.88
-142.62
-175.91
-198.13
-203.76
-190.63
-160.00
-115.86
-63.61
-9.32
40.75
80.49
104.76
110.74
99.62
76.96
51.39
31.77
24.01
28.98
42.74
58.70
70.80
76.26
76.48
76.03
79.97
90.97
107.69
125.10
136.76
137.54
125.32
100.85
66.33
24.05
-23.75
-73.90
-121.49
-160.30
-184.84
-192.79
-185.99
-169.32
-148.00
-125.44
-102.84
-80.56
-59.97
-43.99
-35.74
-36.55
-44.58
-55.30
-63.69
-66.33
-62.50
-53.50
-41.35
-27.57
-12.78
2.76
18.53
33.53
46.57
56.71
63.72
67.92
70.00
70.67
70.55
70.16
69.89
69.94
70.15
69.97
68.60
65.28
59.48
50.98
39.74
25.76
9.00
-10.42
-31.98
-54.37
-75.21
-91.27
-99.09
-96.09
-81.47
-56.60
-24.48
11.35
47.83
82.61
113.49
137.74
151.88
152.66
138.58
111.10
74.69
35.60
-0.33
-29.30
-50.18
-63.79
-71.54
-74.28
-72.10
-64.90
-53.44
-39.95
-27.96
-21.10
-21.72
-29.63
-41.91
-54.10
-62.05
-63.37
-58.14
-48.25
-36.13
-23.69
-11.97
-1.46
7.55
14.98
20.97
25.73
28.95
29.31
24.58
12.80
-6.22
-30.00
-53.83
-72.44
-82.08
-81.64
-72.43
-56.95
-37.60
-16.34
4.98
24.08
38.31
45.46
44.82
37.58
26.12
13.38
1.86
-6.54
-10.57
-9.58
-3.74
5.77
16.89
27.27
35.22
40.26
42.96
44.37
45.12
45.10
43.62
39.97
33.81
25.30
15.01
3.99
-6.07
-12.83
-13.66
-6.65
8.40
29.30
51.98
71.70
84.64
88.96
84.84
73.80
57.82
38.75
18.25
-2.01
-20.22
-34.87
-45.15
-51.35
-54.70
-56.68
-58.36
-59.93
-60.98
-61.22
-60.93
-60.92
-61.74
-62.89
-62.61
-58.69
-49.74
-36.22
-20.51
-5.86
5.13
11.56
14.30
15.32
16.67
19.84
25.59
33.99
44.56
56.16
67.01
75.03
78.60
77.29
72.25
65.62
59.46
54.60
49.98
43.05
30.93
11.92
-13.28
-41.16
-66.28
-82.85
-86.83
-77.40
-57.31
-31.83
-6.73
13.80
28.36
38.17
45.91
54.36
65.66
81.44
103.42
133.51
172.78
219.87
269.80
314.39
344.43
353.08
338.51
304.83
260.65
216.04
179.40
155.19
143.38
140.32
140.49
138.42
130.33
114.85
92.84
66.64
38.76
10.93
-16.32
-43.43
-71.19
-100.18
-130.43
-161.22
-191.13
-218.02
-239.27
-252.32
-255.59
-249.33
-235.98
-219.50
-203.91
-191.54
-182.11
-172.92
-160.32
-141.51
-115.68
-84.25
-50.27
-17.46
10.26
29.07
35.61
27.69
5.33
-28.49
-67.86
-105.37
-134.25
-150.48
-153.90
-147.82
-137.50
-128.16
-123.32
-124.03
-128.93
-135.25
-140.17
-142.11
-141.34
-139.73
-139.90
-143.92
-152.48
-164.61
-178.27
-191.32
-202.23
-210.35
-215.63
-217.90
-216.70
-211.38
-201.74
-188.57
-173.55
-158.68
-145.31
-133.59
-122.45
-110.38
-96.35
-80.49
-64.01
-48.61
-35.45
-24.80
-15.85
-7.37
1.73
11.83
22.48
32.87
42.22
50.28
57.34
64.06
71.16
79.05
87.69
96.64
105.30
113.00
119.18
123.33
125.09
124.39
121.51
117.23
112.63
108.78
106.28
105.06
104.31
102.89
99.87
94.94
88.50
81.33
74.13
67.07
59.92
52.30
44.19
36.15
29.05
23.65
20.12
17.99
16.43
14.65
12.32
9.56
6.72
4.00
1.33
-1.71
-5.54
-10.23
-15.26
-19.57
-21.88
-21.22
-17.11
-9.81
-0.04
11.13
22.36
32.00
38.17
39.17
34.27
24.44
12.51
2.35
-2.62
-0.92
6.55
17.32
28.84
39.79
50.40
61.57
73.75
86.19
97.36
106.14
112.82
119.26
127.66
139.11
152.84
166.98
180.03
192.07
204.40
217.88
231.15
240.19
239.81
226.09
198.59
160.46
117.08
73.75
34.30
0.96
-25.05
-43.17
-53.65
-57.96
-58.83
-59.29
-61.38
-65.26
-69.53
-72.34
-72.65
-70.88
-68.65
-68.08
-70.84
-77.56
-87.69
-99.63
-111.26
-120.71
-127.14
-131.10
-134.43
-139.26
-147.12
-158.30
-171.87
-186.08
-198.82
-207.92
-211.42
-207.87
-196.62
-178.13
-153.90
-126.01
-96.62
-67.52
-40.03
-15.13
6.34
23.53
35.59
41.80
41.93
36.44
26.73
15.05
4.07
-3.89
-7.59
-7.22
-4.21
-0.24
3.63
7.60
13.01
21.56
34.34
51.14
70.38
89.55
105.94
117.43
122.86
122.12
115.67
104.09
87.83
67.34
43.58
18.40
-5.53
-25.37
-39.19
-46.67
-49.47
-50.72
-53.90
-61.80
-75.53
-94.21
-115.35
-135.65
-152.09
-162.95
-168.41
-170.35
-171.56
-174.44
-179.83
-186.43
-191.02
-189.69
-179.47
-159.68
-132.35
-101.65
-72.22
-47.49
-28.66
-14.66
-3.17
8.04
20.21
33.68
48.27
64.10
81.36
99.73
117.79
133.22
143.77
148.64
149.02
147.27
145.51
144.23
142.08
137.15
128.43
116.77
104.30
93.21
84.54
78.23
73.89
71.68
72.58
77.13
84.48
91.76
95.41
93.09
85.22
74.91
66.19
61.84
61.85
63.79
64.34
61.21
54.14
44.57
34.53
25.29
16.91
8.59
-0.58
-10.97
-22.17
-33.21
-43.02
-50.59
-55.33
-57.19
-56.79
-55.33
-54.34
-55.26
-58.86
-64.83
-71.34
-75.52
-74.03
-64.17
-45.02
-18.00
13.31
44.16
70.07
88.30
98.38
101.87
101.38
99.37
97.45
96.27
95.80
95.84
96.33
97.31
98.82
100.70
102.45
103.30
102.44
99.25
93.60
85.99
77.36
68.75
60.80
53.40
45.86
37.41
27.68
17.29
7.71
0.59
-2.90
-2.66
0.39
4.74
9.10
12.65
15.36
17.67
20.07
22.75
25.46
27.67
28.84
28.82
27.61
25.77
24.22
23.85
25.27
28.46
32.90
37.61
42.17
45.53
47.91
50.19
53.45
58.20
63.69
67.81
67.67
61.82
48.55
29.58
8.57
-10.28
-23.95
-31.84
-35.84
-39.48
-45.03
-57.48
-78.80
-109.15
-146.27
-185.27
-219.17
-240.62
-244.21
-226.43
-192.53
-148.74
-101.81
-56.42
-13.75
28.05
71.82
105.33
142.36
174.92
196.12
200.60
187.03
158.67
122.16
84.83
51.96
27.68
9.08
-5.65
-17.73
-27.26
-33.83
-37.60
-39.89
-42.74
-46.14
-51.95
-58.65
-63.61
-64.06
-58.38
-47.14
-33.24
-21.17
-14.32
-16.26
-26.50
-41.78
-57.50
-69.77
-76.64
-77.97
-73.99
-63.44
-44.75
-16.08
21.95
64.66
103.99
131.36
141.30
133.70
113.74
88.87
65.95
48.85
38.02
31.70
27.85
25.33
24.05
24.33
26.22
29.10
31.96
33.79
33.85
31.79
27.64
21.70
14.51
6.87
-0.28
-5.95
-9.43
-10.53
-9.74
-8.13
-7.02
-7.49
-9.99
-14.22
-19.30
-24.15
-27.82
-29.64
-29.25
-26.62
-22.21
-17.02
-12.63
-10.80
-12.84
-19.07
-28.60
-39.69
-50.28
-58.79
-64.38
-66.98
-66.98
-65.15
-62.48
-60.13
-59.24
-60.47
-63.77
-68.26
-72.80
-76.55
-79.50
-82.31
-85.72
-89.96
-94.48
-98.23
-100.32
-100.44
-98.87
-96.16
-92.74
-88.80
-84.58
-80.71
-78.16
-77.83
-79.97
-83.97
-88.55
-92.48
-95.07
-96.50
-97.29
-97.79
-97.51
-95.15
-89.00
-77.88
-61.89
-42.77
-23.50
-7.24
3.77
9.03
9.80
8.54
7.87
9.68
14.66
22.26
31.27
40.34
48.41
55.05
60.42
65.10
69.80
75.11
81.42
88.94
97.75
107.74
118.43
128.80
137.57
143.54
146.04
145.03
140.95
134.34
125.52
115.10
104.10
94.35
88.01
86.40
88.64
91.31
89.73
80.22
62.60
40.32
18.84
2.50
-8.31
-17.87
-33.42
-61.67
-105.33
-161.04
-220.23
-271.85
-306.05
-317.00
-303.73
-269.34
-219.44
-160.71
-100.22
-45.30
-3.28
19.22
17.40
-9.70
-58.19
-119.35
-181.25
-231.49
-260.36
-262.97
-240.00
-197.05
-141.99
-82.24
-22.44
36.10
94.11
151.98
208.04
258.57
299.34
327.88
344.46
351.59
352.40
348.94
341.72
330.69
316.42
300.85
286.53
275.03
265.60
255.16
239.68
216.58
186.44
153.37
123.72
103.79
97.29
103.81
118.71
134.56
143.63
140.42
123.13
93.84
57.29
19.14
-15.55
-43.09
-61.75
-71.67
-74.79
-74.69
-75.88
-82.53
-97.12
-119.37
-146.27
-173.82
-198.56
-218.56
-233.68
-244.59
-251.68
-254.38
-251.45
-241.44
-224.52
-202.14
-176.03
-147.68
-118.07
-88.17
-59.85
-36.26
-20.50
-15.25
-20.81
-31.56
-39.57
-37.35
-21.40
5.33
31.37
48.22
50.56
37.20
11.17
-19.66
-45.75
-57.76
-49.24
-18.83
29.21
84.60
134.16
165.86
172.22
152.05
110.43
56.39
-0.16
-50.73
-90.84
-119.74
-139.26
-152.50
-163.18
-175.30
-192.86
-218.46
-251.28
-286.63
-316.48
-332.07
-327.36
-301.64
-259.58
-209.01
-157.39
-108.99
-64.48
-22.24
19.36
60.21
98.05
129.68
152.56
165.83
170.43
168.12
160.66
149.20
134.14
115.71
94.62
72.70
53.04
39.50
35.77
44.09
64.19
92.99
125.22
154.87
176.94
189.03
191.55
186.97
178.36
168.04
157.15
146.00
134.92
124.77
116.90
112.39
111.38
112.68
114.04
113.03
108.02
98.84
86.86
74.54
64.55
59.07
59.29
65.19
75.42
87.35
97.46
102.22
99.13
87.52
68.71
45.40
20.50
-3.78
-26.31
-47.01
-66.57
-86.01
-106.27
-127.74
-149.85
-170.85
-188.17
-199.43
-203.42
-200.48
-192.14
-180.21
-165.92
-149.94
-132.83
-115.61
-99.94
-87.67
-80.04
-77.06
-77.32
-78.33
-77.16
-71.21
-58.99
-40.61
-17.84
6.43
29.04
47.26
59.38
64.77
63.62
56.92
46.52
35.39
27.11
24.96
30.63
43.50
60.47
77.10
89.01
93.33
89.42
78.71
63.84
47.66
32.43
19.56
9.72
3.25
0.18
0.37
3.15
7.35
11.37
13.69
13.21
9.63
3.56
-3.66
-10.27
-14.50
-15.06
-11.60
-5.01
2.62
8.43
9.68
4.62
-6.66
-22.17
-38.53
-51.97
-59.47
-59.65
-53.02
-41.53
-28.00
-15.36
-6.19
-2.35
-4.94
-14.12
-28.92
-47.23
-66.14
-82.66
-94.60
-101.21
-103.19
-101.83
-98.17
-92.17
-82.82
-69.05
-50.79
-29.65
-8.59
9.18
21.49
27.99
30.01
29.65
28.73
28.30
28.89
30.86
34.64
40.52
48.21
56.58
64.02
69.03
70.95
70.05
67.45
64.45
61.96
60.12
58.21
54.90
48.62
38.20
23.37
5.03
-14.89
-33.90
-49.68
-60.56
-65.67
-64.88
-58.80
-48.74
-36.67
-24.83
-15.29
-9.24
-6.76
-6.85
-8.10
-9.32
-9.90
-9.83
-9.34
-8.67
-7.86
-6.78
-5.30
-3.41
-1.18
1.20
3.64
6.10
8.63
11.30
14.13
16.86
18.97
19.82
18.95
16.26
12.12
7.16
2.13
-2.45
-6.24
-9.07
-10.91
-11.78
-12.01
-12.20
-13.16
-15.54
-19.35
-23.79
-27.43
-28.76
-26.93
-22.09
-15.29
-8.06
-1.67
3.23
6.69
9.09
10.79
11.84
12.09
11.34
9.61
7.12
4.26
1.37
-1.34
-3.80
-5.99
-7.95
-9.61
-10.88
-11.76
-12.34
-12.76
-13.23
-13.87
-14.77
-15.89
-17.13
-18.36
-19.52
-20.63
-21.82
-23.18
-24.73
-26.26
-27.45
-27.91
-27.36
-25.64
-22.73
-18.62
-13.32
-6.84
0.60
8.49
16.03
22.42
27.01
29.61
30.45
30.04
28.91
27.51
26.05
24.52
22.81
20.73
18.09
14.77
10.84
6.66
2.91
0.36
-0.38
0.89
3.79
7.44
10.83
13.22
14.36
14.52
14.22
13.80
13.25
12.37
10.97
9.19
7.61
7.02
8.03
10.78
14.82
19.26
23.03
25.18
25.17
22.89
18.70
13.35
7.77
2.85
-0.75
-2.78
-3.46
-3.28
-2.83
-2.54
-2.58
-2.81
-3.02
-3.01
-2.75
-2.34
-1.90
-1.44
-0.86
0.07
1.56
3.69
6.38
9.38
12.30
14.70
16.21
16.75
16.62
16.47
17.15
19.22
22.68
26.74
30.04
30.97
28.20
21.08
9.82
-4.49
-20.08
-34.85
-46.84
-54.61
-57.60
-56.21
-51.59
-45.20
-38.52
-32.63
-28.10
-24.98
-22.89
-21.15
-19.04
-15.99
-11.84
-6.87
-1.80
2.47
5.20
6.01
5.03
2.79
-0.03
-2.81
-5.16
-6.93
-8.06
-8.35
-7.43
-4.87
-0.54
5.21
11.32
16.36
18.96
18.31
14.49
8.42
1.61
-4.40
-8.48
-10.20
-9.84
-8.18
-6.25
-4.93
-4.82
-6.11
-8.59
-11.76
-14.90
-17.30
-18.38
-17.95
-16.24
-13.82
-11.39
-9.33
-7.53
-5.43
-2.22
2.58
8.87
15.91
22.59
27.96
31.55
33.49
34.26
34.34
33.98
33.09
31.40
28.74
25.13
20.89
16.47
12.42
9.34
7.98
9.10
13.21
20.22
29.21
38.43
45.82
49.57
48.88
44.46
38.48
34.12
34.41
41.00
53.16
67.64
79.40
83.18
75.23
54.56
23.30
-14.11
-52.09
-85.39
-110.14
-124.49
-128.85
-125.76
-119.12
-112.86
-109.51
-109.08
-108.82
-104.36
-91.79
-69.76
-40.91
-11.84
8.57
12.09
-5.60
-42.54
-90.29
-136.03
-166.59
-172.50
-150.79
-105.32
-44.89
19.84
79.15
126.01
156.59
170.02
167.87
153.65
131.87
107.05
82.64
60.37
40.46
22.46
6.26
-7.70
-18.44
-25.08
-27.20
-24.95
-18.88
-9.79
1.31
13.12
23.99
32.38
37.28
38.82
38.38
38.15
40.34
46.34
56.18
68.54
81.33
92.43
100.45
104.98
106.45
105.65
103.22
99.29
93.55
85.62
75.47
63.58
50.81
38.13
26.29
15.73
6.57
-1.24
-7.86
-13.41
-17.96
-21.51
-24.02
-25.42
-25.75
-25.24
-24.33
-23.63
-23.70
-24.77
-26.68
-28.85
-30.45
-30.80
-29.52
-26.58
-22.26
-17.05
-11.53
-6.35
-2.10
0.82
2.42
3.19
3.91
5.26
7.43
9.92
11.67
11.64
9.22
4.56
-1.62
-8.32
-14.63
-19.89
-23.66
-25.64
-25.72
-24.11
-21.47
-18.77
-17.11
-17.33
-19.72
-24.00
-29.40
-34.91
-39.53
-42.47
-43.36
-42.43
-40.59
-39.33
-40.23
-44.34
-51.62
-60.79
-69.82
-76.71
-80.30
-80.53
-78.14
-73.94
-68.40
-61.63
-53.88
-46.03
-39.57
-35.99
-35.98
-38.90
-42.99
-46.15
-46.90
-44.96
-41.09
-36.45
-31.90
-27.63
-23.28
-18.23
-12.00
-4.50
4.05
13.16
22.29
30.85
38.31
44.15
47.91
49.23
48.01
44.63
39.90
35.05
31.34
29.67
30.22
32.43
35.12
37.14
37.87
37.55
37.23
38.11
40.96
45.49
50.56
54.71
57.11
57.96
58.14
58.41
58.87
58.75
57.03
53.04
46.75
38.51
28.56
16.75
2.83
-12.87
-28.97
-43.37
-54.00
-59.80
-61.22
-59.81
-57.44
-55.43
-54.39
-54.41
-55.45
-57.54
-60.72
-64.78
-68.96
-72.12
-72.85
-70.06
-63.38
-53.36
-41.27
-28.79
-17.35
-7.75
-0.08
6.09
11.22
15.38
18.13
18.84
17.05
12.94
7.43
1.81
-2.68
-5.44
-6.58
-6.81
-6.79
-6.81
-6.50
-5.17
-2.25
2.25
7.58
12.62
16.36
18.37
18.95
18.89
19.05
20.03
22.06
24.98
28.46
32.04
35.24
37.61
38.84
38.77
37.52
35.30
32.40
29.11
25.70
22.40
19.38
16.74
14.51
12.69
11.24
10.07
8.90
7.16
4.10
-1.03
-8.66
-18.66
-30.23
-42.15
-52.99
-61.50
-66.85
-68.78
-67.57
-63.85
-58.34
-51.60
-43.98
-35.71
-26.98
-18.11
-9.58
-1.94
4.31
8.86
11.53
12.33
11.49
9.43
6.80
4.27
2.32
1.05
0.15
-0.90
-2.47
-4.55
-6.65
-8.08
-8.33
-7.47
-6.17
-5.49
-6.31
-8.89
-12.60
-16.16
-18.36
-18.57
-17.10
-14.95
-13.03
-11.53
-9.66
-6.08
0.21
9.08
19.08
28.03
34.00
36.24
35.36
32.84
30.14
27.94
26.11
24.14
21.74
19.11
16.78
15.17
14.25
13.58
12.59
10.93
8.60
5.78
2.52
-1.22
-5.64
-10.75
-16.16
-21.18
-25.05
-27.20
-27.56
-26.54
-24.79
-23.04
-21.80
-21.28
-21.36
-21.69
-21.75
-21.16
-19.69
-17.31
-14.20
-10.68
-7.25
-4.57
-3.31
-3.97
-6.53
-10.26
-13.84
-15.78
-15.03
-11.48
-6.08
-0.36
4.24
7.00
8.02
7.98
7.55
7.08
6.50
5.59
4.18
2.38
0.50
-1.04
-1.87
-1.78
-0.73
1.09
3.20
5.03
6.08
6.23
5.81
5.48
5.89
7.26
9.19
10.82
11.21
9.86
6.89
3.04
-0.77
-3.75
-5.47
-5.96
-5.59
-4.99
-4.88
-5.86
-8.19
-11.51
-14.89
-17.07
-16.87
-13.59
-7.19
1.80
12.61
24.44
36.54
48.18
58.61
67.17
73.39
77.25
79.07
79.38
78.68
77.29
75.33
72.85
69.84
66.27
62.16
57.50
52.40
47.02
41.53
36.01
30.39
24.50
18.22
11.73
5.51
0.23
-3.52
-5.56
-6.19
-6.10
-6.02
-6.41
-7.28
-8.26
-8.85
-8.69
-7.71
-6.11
-4.20
-2.21
-0.25
1.59
3.16
4.17
4.29
3.40
1.69
-0.38
-2.24
-3.45
-3.86
-3.54
-2.68
-1.50
-0.19
1.04
1.92
2.24
1.97
1.29
0.58
0.28
0.67
1.83
3.57
5.67
7.87
10.00
12.00
13.84
15.52
16.97
18.12
18.84
19.08
18.83
18.19
17.33
16.40
15.48
14.58
13.60
12.46
11.14
9.75
8.41
7.26
6.31
5.51
4.69
3.70
2.44
0.93
-0.70
-2.20
-3.35
-3.98
-4.05
-3.63
-2.87
-1.87
-0.68
0.69
2.20
3.68
4.92
5.67
5.81
5.31
4.30
2.95
1.39
-0.33
-2.20
-4.15
-6.09
-7.88
-9.43
-10.69
-11.68
-12.41
-12.90
-13.12
-13.02
-12.60
-11.93
-11.15
-10.40
-9.72
-9.04
-8.19
-7.01
-5.46
-3.68
-1.97
-0.63
0.21
0.61
0.78
0.99
1.34
1.76
2.12
2.32
2.40
2.54
2.90
3.51
4.20
4.63
4.53
3.82
2.64
1.29
0.02
-1.02
-1.83
-2.43
-2.87
-3.22
-3.54
-3.93
-4.54
-5.46
-6.68
-8.06
-9.30
-10.16
-10.39
-9.92
-8.83
-7.31
-5.67
-4.22
-3.18
-2.57
-2.24
-1.95
-1.49
-0.79
0.10
1.00
1.76
2.28
2.52
2.51
2.32
2.06
1.79
1.51
1.16
0.67
-0.04
-0.89
-1.69
-2.20
-2.28
-2.06
-1.79
-1.73
-2.01
-2.50
-2.85
-2.78
-2.13
-0.96
0.51
2.11
3.68
5.11
6.26
6.89
6.81
5.95
4.37
2.29
0.01
-2.21
-4.12
-5.50
-6.18
-6.12
-5.46
-4.57
-3.94
-3.92
-4.55
-5.50
-6.21
-6.24
-5.42
-3.97
-2.36
-1.05
-0.34
-0.24
-0.42
-0.31
0.75
3.27
7.37
12.60
17.95
22.07
23.56
21.51
15.80
7.24
-2.77
-12.72
-21.53
-28.81
-34.77
-39.90
-44.54
-48.65
-51.82
-53.51
-53.35
-51.30
-47.53
-42.31
-35.76
-28.03
-19.40
-10.40
-1.76
5.80
11.78
15.87
17.87
17.56
14.78
9.82
3.61
-2.17
-5.56
-5.13
-0.64
6.70
14.77
21.42
25.46
26.94
26.91
26.66
27.02
28.06
29.28
30.10
30.24
29.87
29.41
29.12
28.96
28.62
27.84
26.77
26.09
26.71
29.31
33.78
39.21
44.15
47.29
48.09
46.90
44.76
42.62
40.90
39.16
36.33
31.16
22.78
11.05
-3.19
-18.16
-31.37
-40.06
-41.90
-35.80
-22.48
-4.60
13.92
28.96
37.48
38.24
31.96
20.68
6.86
-7.37
-20.56
-32.02
-41.67
-49.97
-57.78
-66.04
-75.37
-85.44
-94.68
-100.71
-101.23
-95.08
-82.75
-66.05
-47.10
-27.29
-7.00
13.89
34.98
54.89
71.53
83.25
89.86
92.87
94.77
97.67
102.35
108.14
113.64
117.57
119.15
117.94
113.37
104.69
91.38
73.81
53.67
33.63
16.25
2.76
-7.43
-16.32
-26.03
-37.24
-48.39
-56.09
-56.64
-47.89
-30.42
-7.46
16.60
38.04
55.24
68.84
80.44
91.03
99.89
104.86
103.65
95.33
80.93
62.84
43.43
23.74
3.26
-19.12
-43.75
-69.31
-93.00
-111.76
-123.52
-127.92
-126.09
-119.84
-111.08
-101.64
-93.49
-88.84
-89.85
-97.69
-111.76
-129.34
-146.01
-156.92
-158.27
-148.66
-129.75
-105.96
-82.95
-65.52
-55.60
-51.34
-47.98
-40.27
-25.18
-3.79
19.03
36.86
44.67
41.12
28.81
12.65
-2.34
-12.60
-16.48
-13.70
-4.96
7.77
20.78
28.62
25.20
5.99
-29.70
-77.72
-129.68
-175.23
-204.90
-212.48
-196.18
-158.79
-106.98
-50.08
1.69
39.16
56.19
51.25
27.95
-5.72
-39.05
-61.16
-63.79
-43.48
-2.57
51.34
107.65
155.99
189.20
205.18
206.68
199.54
189.99
182.37
178.07
175.88
173.52
169.01
161.52
151.32
138.96
124.61
107.77
87.70
64.10
37.72
10.39
-15.52
-37.88
-55.47
-68.02
-75.83
-79.07
-77.43
-70.28
-57.44
-39.99
-20.86
-4.41
4.64
2.77
-11.10
-35.40
-66.53
-100.24
-132.84
-161.75
-185.48
-203.36
-215.25
-221.80
-224.64
-226.32
-229.59
-236.23
-245.97
-256.42
-263.90
-265.11
-258.34
-243.78
-222.86
-197.02
-166.99
-132.99
-95.69
-57.07
-20.27
11.63
37.29
58.27
78.55
102.57
132.94
168.71
205.57
237.42
258.87
267.30
263.55
251.10
234.30
216.64
199.81
183.77
167.56
150.07
130.49
108.25
82.87
53.89
21.24
-14.37
-51.21
-86.77
-118.49
-144.50
-164.20
-178.24
-187.90
-194.34
-197.91
-197.94
-193.07
-181.98
-164.06
-139.93
-111.35
-80.70
-50.30
-21.97
3.21
24.78
42.61
56.76
67.44
75.06
80.20
83.56
85.71
87.08
87.89
88.21
88.05
87.32
85.86
83.52
80.24
76.19
71.74
67.37
63.44
59.98
56.67
52.99
48.48
43.03
37.00
31.08
26.03
22.29
19.88
18.47
17.59
16.97
16.55
16.45
16.63
16.83
16.60
15.53
13.55
10.99
8.47
6.65
5.93
6.38
7.80
9.84
12.16
14.45
16.42
17.86
18.65
18.87
18.74
18.59
18.78
19.53
20.90
22.66
24.35
25.41
25.28
23.64
20.54
16.42
11.95
7.73
4.15
1.30
-0.86
-2.36
-3.12
-3.02
-2.05
-0.42
1.43
3.03
4.07
4.48
4.41
4.09
3.71
3.37
3.13
3.06
3.25
3.77
4.62
5.65
6.63
7.36
7.72
7.74
7.50
7.13
6.69
6.13
5.44
4.53
3.38
1.99
0.42
-1.33
-3.27
-5.45
-7.83
-10.30
-12.57
-14.31
-15.18
-14.96
-13.66
-11.46
-8.68
-5.64
-2.57
0.45
3.43
6.33
9.06
11.44
13.33
14.68
15.58
16.21
16.75
17.26
17.68
17.91
17.82
17.39
16.69
15.84
15.01
14.34
13.84
13.47
13.09
12.62
12.03
11.45
10.97
10.66
10.35
9.77
8.64
6.84
4.55
2.09
-0.20
-2.15
-3.79
-5.25
-6.57
-7.66
-8.30
-8.26
-7.42
-5.89
-3.91
-1.76
0.39
2.46
4.51
6.62
8.80
10.96
12.88
14.42
15.46
16.04
16.30
16.35
16.23
15.90
15.29
14.38
13.25
12.07
10.97
10.01
9.13
8.21
7.16
5.93
4.52
2.97
1.35
-0.28
-1.85
-3.28
-4.48
-5.39
-5.95
-6.21
-6.18
-5.95
-5.58
-5.06
-4.34
-3.27
-1.68
0.56
3.41
6.66
9.91
12.78
15.02
16.66
18.05
19.62
21.81
24.82
28.52
32.57
36.54
40.20
43.57
46.95
50.75
55.25
60.50
66.32
72.36
78.38
84.24
90.00
95.80
101.90
108.72
116.96
127.61
141.57
159.15
179.47
200.28
218.37
230.42
234.13
228.94
216.19
198.69
179.84
162.60
148.75
138.32
129.64
119.66
104.85
82.19
49.95
8.08
-41.88
-97.24
-154.65
-210.56
-261.73
-305.45
-339.76
-363.63
-377.06
-381.22
-378.22
-370.54
-360.16
-348.08
-334.06
-317.40
-297.72
-275.55
-252.29
-229.54
-208.34
-188.92
-171.15
-155.42
-142.96
-135.11
-131.82
-130.41
-125.50
-110.64
-81.00
-35.79
20.80
80.62
134.22
174.00
196.64
203.85
201.09
195.09
191.21
191.81
196.28
202.30
207.42
209.95
209.08
204.31
194.98
180.72
162.12
141.25
121.22
105.12
94.81
90.53
91.58
97.40
108.09
123.78
143.33
163.39
178.66
183.53
174.25
150.29
114.29
70.81
24.62
-20.27
-60.92
-95.08
-121.01
-137.62
-144.93
-144.31
-138.19
-129.36
-120.22
-112.27
-106.06
-101.37
-97.59
-94.01
-90.01
-85.20
-79.46
-72.97
-66.17
-59.68
-54.07
-49.65
-46.36
-43.70
-40.90
-37.17
-31.96
-24.98
-16.30
-6.47
3.21
10.53
12.81
7.78
-5.27
-24.61
-46.41
-65.95
-79.44
-85.30
-84.40
-79.15
-72.03
-64.53
-56.95
-48.97
-40.42
-31.68
-23.55
-16.70
-11.28
-6.89
-2.82
1.56
6.42
11.42
15.85
19.01
20.48
20.34
19.09
17.45
16.05
15.22
14.93
14.91
14.80
14.40
13.74
13.14
13.05
13.89
15.81
18.63
21.82
24.72
26.70
27.39
26.71
24.96
22.58
20.05
17.69
15.50
13.28
10.68
7.35
3.12
-1.97
-7.71
-13.87
-20.23
-26.55
-32.45
-37.46
-41.15
-43.38
-44.46
-44.95
-45.38
-45.87
-46.12
-45.53
-43.65
-40.40
-36.11
-31.29
-26.28
-21.15
-15.88
-10.66
-6.13
-3.33
-3.29
-6.60
-13.07
-21.71
-31.02
-39.48
-45.90
-49.73
-50.99
-50.14
-47.83
-44.64
-41.12
-37.67
-34.59
-32.00
-29.90
-28.13
-26.50
-24.91
-23.37
-22.04
-21.16
-21.00
-21.71
-23.37
-25.88
-28.97
-32.32
-35.57
-38.42
-40.65
-42.00
-42.12
-40.47
-36.41
-29.55
-20.15
-9.23
1.54
10.52
16.76
20.47
22.91
25.76
30.23
36.49
43.76
50.74
56.38
60.36
63.07
65.32
67.84
70.98
74.65
78.70
82.86
86.76
89.88
91.58
91.38
89.20
85.54
81.33
77.95
76.40
76.86
78.69
80.62
81.45
80.48
77.59
73.11
68.14
63.57
59.97
57.46
55.92
55.19
55.18
55.60
55.97
56.74
58.77
63.33
71.32
82.42
94.65
104.83
109.73
102.61
80.79
46.37
6.21
-31.49
-61.31
-82.55
-97.88
-110.67
-122.88
-133.89
-142.62
-148.29
-151.69
-154.79
-160.41
-170.78
-187.24
-210.40
-239.70
-273.82
-309.49
-341.61
-364.13
-371.85
-362.36
-337.30
-301.87
-260.79
-220.41
-185.18
-156.65
-134.08
-115.74
-100.05
-85.96
-72.69
-59.05
-43.96
-26.34
-5.92
16.47
39.38
61.56
82.80
103.93
126.35
150.69
176.48
201.76
223.66
239.52
247.99
249.59
246.56
241.93
238.36
237.57
239.84
244.08
248.30
250.46
249.34
245.22
240.09
237.12
239.78
250.50
269.58
295.00
322.94
349.06
369.92
384.04
392.03
395.94
397.70
397.66
393.84
382.32
358.92
321.18
269.89
209.23
145.46
84.75
31.29
-13.69
-51.48
-84.59
-115.55
-146.26
-177.92
-210.82
-243.88
-273.96
-296.02
-304.70
-296.80
-273.72
-242.07
-212.06
-193.86
-193.94
-212.72
-244.83
-281.71
-315.10
-339.92
-355.03
-362.09
-363.16
-358.65
-346.62
-323.84
-287.96
-239.52
-182.39
-122.32
-64.48
-11.56
36.43
80.54
120.79
155.02
179.74
192.20
192.41
183.66
171.26
160.14
152.84
148.81
145.29
139.32
129.26
115.61
100.49
86.60
76.08
69.89
67.76
68.55
70.72
72.74
73.36
71.79
67.82
61.80
54.47
46.56
38.36
29.54
19.23
6.50
-9.13
-27.29
-46.82
-66.07
-83.57
-98.51
-111.06
-122.21
-133.22
-144.90
-157.00
-168.20
-176.53
-180.39
-179.34
-174.58
-168.51
-163.77
-162.21
-164.29
-169.10
-175.05
-180.49
-183.92
-184.00
-179.39
-169.07
-153.05
-132.87
-111.34
-91.46
-75.09
-62.17
-51.24
-40.61
-29.74
-19.71
-12.56
-10.03
-12.48
-18.83
-27.27
-36.57
-46.40
-57.09
-68.77
-80.69
-91.04
-97.44
-97.88
-91.63
-80.22
-66.96
-55.90
-50.32
-51.31
-57.26
-64.50
-68.55
-65.59
-54.06
-34.84
-10.91
13.24
32.67
43.03
41.70
28.53
10.25
-5.43
-11.22
-3.38
16.52
42.93
69.34
90.60
103.27
104.44
93.96
73.36
46.66
20.38
1.92
-2.86
8.64
35.51
75.15
122.15
169.95
211.56
239.69
247.72
231.41
190.88
131.38
62.12
-6.96
-67.98
-116.78
-152.37
-175.16
-185.48
-183.03
-167.70
-140.83
-106.01
-68.46
-33.72
-6.14
12.30
22.43
27.31
30.99
37.18
48.17
64.81
86.97
113.71
143.33
172.91
198.23
214.47
217.84
207.22
184.81
155.13
122.60
89.07
52.84
10.13
-41.64
-100.81
-160.32
-209.70
-239.01
-242.86
-222.37
-184.05
-136.57
-87.15
-39.45
6.23
50.84
94.23
134.28
167.75
192.14
207.05
214.13
215.37
211.19
199.41
176.21
138.36
85.69
22.17
-44.77
-106.39
-155.19
-186.62
-199.65
-196.25
-180.28
-156.44
-129.27
-102.55
-78.61
-58.25
-40.78
-24.74
-8.55
8.87
27.86
48.01
68.33
87.48
103.73
115.22
120.23
117.65
107.64
92.01
74.24
58.52
48.41
45.41
48.35
54.04
58.80
60.26
58.23
54.36
50.90
49.37
50.11
52.65
56.36
60.77
65.25
68.41
68.03
61.75
48.16
27.65
2.36
-24.97
-52.18
-78.30
-103.42
-127.41
-149.11
-166.08
-175.35
-174.60
-163.28
-143.05
-117.14
-89.34
-62.43
-37.23
-12.73
12.99
41.13
70.97
99.75
123.97
140.77
149.99
154.18
157.31
162.61
170.79
179.65
185.11
183.31
170.75
146.00
109.33
62.89
11.12
-39.11
-79.33
-101.92
-102.07
-82.08
-48.70
-11.36
21.11
43.13
52.84
50.86
38.51
18.17
-10.30
-45.34
-84.60
-124.96
-162.99
-195.23
-218.14
-228.73
-223.20
-202.53
-168.10
-122.91
-70.42
-13.31
47.05
110.06
163.32
214.70
256.83
284.11
293.27
284.80
262.46
231.54
197.05
160.49
123.12
81.81
35.98
-12.30
-58.03
-94.47
-115.92
-119.85
-111.70
-99.95
-97.17
-111.03
-141.38
-179.62
-212.34
-227.49
-218.48
-189.52
-148.27
-104.22
-61.78
-19.70
26.44
79.87
130.95
181.18
218.00
231.98
218.67
181.91
132.06
81.88
41.79
16.31
4.84
0.18
-3.95
-11.39
-21.83
-31.93
-37.60
-36.37
-28.61
-16.32
-4.66
2.67
3.85
-0.63
-8.74
-18.15
-27.09
-34.72
-39.75
-41.62
-38.47
-28.37
-10.27
15.10
45.13
75.89
103.10
123.22
133.39
132.69
122.04
103.88
81.19
56.31
30.09
1.71
-29.98
-65.04
-100.68
-131.29
-149.79
-150.73
-132.69
-99.30
-58.62
-20.51
6.25
16.15
8.16
-14.43
-45.56
-77.82
-103.87
-118.03
-117.27
-102.16
-77.07
-49.26
-26.73
-16.31
-21.37
-40.79
-69.37
-98.81
-120.43
-129.13
-125.23
-113.21
-99.29
-90.65
-90.91
-102.54
-126.30
-160.62
-200.97
-240.54
-269.61
-281.10
-272.93
-248.54
-215.53
-182.07
-153.83
-132.70
-117.29
-104.67
-92.68
-80.44
-68.03
-56.01
-44.68
-34.13
-24.47
-15.82
-8.03
-0.81
6.69
15.85
27.93
43.79
63.55
86.66
112.25
139.64
168.43
198.70
230.76
264.55
299.17
332.48
360.98
380.31
386.25
376.04
349.56
309.76
261.99
212.51
166.70
127.79
96.58
71.99
52.14
35.30
20.41
7.14
-4.41
-14.05
-21.79
-27.98
-33.26
-38.13
-42.35
-44.66
-43.13
-36.20
-24.01
-9.06
4.41
12.06
11.50
3.39
-8.86
-20.59
-27.38
-26.13
-15.27
5.26
33.93
67.37
100.42
127.08
142.15
142.65
128.64
102.87
70.15
36.56
8.65
-7.58
-8.06
7.87
36.89
72.49
107.24
135.27
153.59
161.92
161.20
152.23
135.28
110.52
78.52
40.31
-2.90
-49.65
-97.36
-141.57
-175.84
-193.39
-189.62
-164.26
-121.52
-68.21
-10.82
46.60
102.40
155.63
204.21
244.27
271.30
282.20
276.74
257.65
229.15
195.12
157.92
118.47
77.20
35.40
-4.15
-37.66
-61.56
-73.99
-75.73
-70.00
-61.27
-53.49
-48.69
-46.62
-45.43
-43.04
-38.19
-30.94
-22.34
-13.97
-7.65
-5.38
-9.30
-21.43
-42.90
-73.18
-109.89
-149.08
-186.55
-219.21
-246.06
-268.60
-290.46
-316.38
-350.57
-394.94
-447.06
-499.82
-542.57
-564.14
-556.89
-520.03
-460.90
-392.99
-331.40
-287.37
-264.51
-258.17
-258.28
-254.26
-239.16
-211.68
-174.92
-133.58
-90.98
-47.77
-2.59
46.23
99.18
155.75
215.16
276.73
339.10
398.73
448.70
479.91
484.02
456.87
400.95
324.96
240.73
159.48
88.76
31.53
-12.87
-47.09
-74.49
-98.37
-121.66
-146.46
-173.18
-199.89
-222.37
-235.28
-233.88
-216.16
-183.89
-142.22
-98.11
-57.97
-25.82
-2.48
13.94
26.49
37.88
49.41
60.73
70.54
77.45
80.69
80.41
77.59
73.50
69.32
65.79
63.12
61.15
59.63
58.45
57.79
57.92
58.97
60.71
62.56
63.86
64.16
63.45
61.93
59.81
57.12
53.67
49.23
43.86
37.99
32.26
27.36
23.65
21.12
19.44
18.19
17.03
15.89
14.91
14.40
14.66
15.82
17.79
20.30
23.00
25.58
27.81
29.44
30.27
30.16
29.13
27.45
25.62
24.13
23.26
23.02
23.20
23.56
24.00
24.54
25.15
25.70
25.93
25.63
24.86
23.99
23.49
23.68
24.61
25.94
27.22
28.05
28.29
28.04
27.55
27.10
26.86
26.90
27.19
27.63
28.07
28.37
28.49
28.53
28.74
29.49
30.98
33.07
35.16
36.41
35.96
33.39
28.83
22.95
16.81
11.53
8.12
7.26
9.16
13.46
19.36
25.92
32.37
38.45
44.30
50.12
55.77
60.57
63.34
62.80
57.77
47.35
31.03
8.76
-18.80
-50.10
-82.80
-114.07
-141.31
-162.72
-177.62
-186.27
-189.40
-187.67
-181.43
-170.86
-156.19
-137.90
-116.82
-94.05
-70.79
-48.22
-27.36
-8.90
6.77
19.62
29.97
38.39
45.58
52.19
58.63
65.01
71.19
76.92
82.02
86.43
90.26
93.68
96.84
99.79
102.34
104.13
104.63
103.42
100.50
96.41
92.25
89.26
88.31
89.53
92.34
95.93
99.89
104.58
110.82
119.03
128.63
138.00
145.24
149.25
150.22
149.18
147.05
143.52
136.89
124.71
104.84
76.27
39.13
-5.51
-55.61
-107.68
-156.27
-194.41
-215.44
-215.65
-196.41
-164.34
-129.25
-100.73
-84.83
-82.39
-89.43
-98.91
-103.28
-96.65
-76.35
-43.70
-3.52
37.13
70.95
92.28
98.44
89.45
67.31
35.03
-3.93
-46.00
-87.97
-127.27
-162.24
-191.43
-212.60
-222.16
-215.92
-191.11
-148.45
-92.72
-31.28
28.62
81.88
125.80
158.84
179.41
186.13
179.30
162.32
141.38
122.98
110.76
103.95
98.56
90.27
77.22
60.89
44.73
31.79
23.07
17.61
13.50
9.42
5.48
3.56
7.05
19.96
45.42
83.76
131.28
180.38
221.67
247.25
253.52
242.12
218.65
189.88
161.17
135.11
111.75
89.64
66.72
40.74
9.54
-28.67
-74.48
-126.34
-179.99
-228.92
-265.70
-284.15
-281.81
-261.32
-230.37
-200.00
-181.32
-182.10
-204.33
-243.66
-291.24
-337.19
-374.40
-400.79
-419.21
-434.62
-450.57
-466.68
-478.44
-479.79
-466.55
-438.96
-401.66
-361.19
-322.77
-288.26
-256.40
-224.97
-193.09
-162.12
-134.72
-112.97
-96.65
-83.04
-68.15
-48.45
-22.08
10.48
46.62
82.37
113.27
135.58
147.39
149.39
144.88
138.66
135.19
136.93
143.66
153.05
162.39
170.26
177.14
184.71
194.44
206.46
219.45
231.48
241.11
247.90
252.09
253.87
252.75
247.64
237.46
221.93
201.84
178.85
154.78
131.14
108.94
88.96
71.96
58.86
50.53
47.44
49.50
55.88
64.93
74.31
81.44
84.16
81.45
73.88
63.43
52.91
44.97
41.41
42.75
48.37
56.73
65.81
73.43
77.67
77.23
71.67
61.47
47.80
32.08
15.67
-0.24
-14.58
-26.39
-35.00
-40.29
-42.68
-42.93
-41.72
-39.39
-35.81
-30.70
-24.01
-16.09
-7.66
0.46
7.52
13.01
16.70
18.74
19.65
20.33
21.88
25.07
29.95
35.60
40.40
42.64
41.36
36.73
30.03
23.13
17.81
15.13
15.13
16.89
18.88
19.44
17.40
12.32
4.59
-4.93
-15.27
-25.67
-35.64
-44.83
-52.87
-59.30
-63.77
-66.10
-66.52
-65.50
-63.59
-61.20
-58.57
-55.76
-52.78
-49.65
-46.41
-43.11
-39.77
-36.48
-33.30
-30.33
-27.54
-24.74
-21.66
-18.00
-13.64
-8.71
-3.68
0.83
4.17
5.98
6.24
5.26
3.59
1.71
-0.07
-1.68
-3.30
-5.13
-7.20
-9.30
-10.92
-11.41
-10.25
-7.23
-2.64
2.81
8.19
12.67
15.75
17.37
17.83
17.61
17.21
16.95
17.00
17.35
17.93
18.68
19.54
20.45
21.33
22.04
22.44
22.40
21.93
21.18
20.42
19.98
20.14
21.01
22.50
24.32
26.12
27.61
28.71
29.63
30.70
32.26
34.43
37.06
39.78
42.22
44.11
45.46
46.46
47.38
48.43
49.64
50.90
51.97
52.55
52.27
50.75
47.77
43.37
38.02
32.46
27.55
23.85
21.39
19.67
17.88
15.25
11.51
6.98
2.62
-0.42
-1.10
1.02
5.60
11.53
17.27
21.20
22.21
19.90
14.61
7.06
-1.99
-11.96
-22.35
-32.61
-42.00
-49.69
-55.04
-57.83
-58.27
-56.63
-52.93
-47.21
-39.83
-32.22
-27.11
-27.94
-37.96
-59.33
-92.79
-137.52
-191.04
-248.97
-305.15
-352.43
-384.41
-397.24
-390.86
-368.57
-335.44
-296.15
-253.84
-210.20
-166.50
-124.35
-85.66
-51.68
-22.18
4.55
30.57
56.88
82.62
105.53
123.25
134.68
140.80
144.37
148.59
155.44
164.79
174.54
181.85
184.94
184.32
183.03
185.23
194.13
210.15
230.33
249.41
261.88
264.25
256.06
239.63
218.56
196.05
173.96
152.63
131.45
109.54
86.36
61.84
36.55
12.10
-8.54
-21.20
-21.74
-8.19
17.26
47.83
73.92
86.56
81.14
59.16
27.32
-5.81
-33.64
-54.06
-69.39
-84.34
-103.06
-127.15
-155.28
-184.29
-210.76
-232.13
-246.97
-254.62
-255.01
-248.61
-236.65
-221.28
-205.06
-190.23
-177.77
-167.07
-156.39
-143.92
-128.98
-112.55
-97.20
-85.87
-80.50
-80.87
-84.11
-85.10
-77.74
-56.81
-20.31
28.79
82.36
128.89
157.10
160.00
137.72
97.73
52.34
14.38
-6.93
-8.28
7.86
35.27
66.60
95.40
116.94
128.23
127.72
115.37
92.90
63.92
33.52
7.35
-9.92
-15.91
-11.21
0.86
15.51
28.04
35.32
36.47
32.53
25.58
17.58
9.65
2.05
-5.44
-12.93
-20.07
-26.01
-29.86
-31.01
-29.48
-25.86
-21.04
-15.84
-10.80
-6.10
-1.71
2.44
6.30
9.68
12.32
14.05
14.77
14.50
13.34
11.47
9.11
6.55
4.10
1.98
0.39
-0.57
-0.82
-0.32
0.89
2.51
4.10
5.11
5.24
4.59
3.65
3.09
3.37
4.38
5.39
5.38
3.42
-0.85
-7.01
-13.96
-20.24
-24.49
-25.86
-24.30
-20.48
-15.60
-10.86
-7.15
-4.72
-3.32
-2.37
-1.41
-0.27
0.87
1.67
1.80
1.11
-0.43
-2.66
-5.31
-7.80
-9.23
-8.42
-4.29
3.63
14.87
27.91
40.62
51.09
58.29
62.37
64.42
65.74
67.19
68.89
70.34
70.94
70.32
68.52
65.80
62.46
58.69
54.70
50.80
47.51
45.50
45.29
47.11
50.70
55.48
60.64
65.44
69.35
72.19
74.08
75.40
76.59
78.00
79.88
82.31
85.42
89.39
94.50
100.85
108.07
115.23
121.04
124.56
126.08
127.63
132.55
144.05
163.22
187.63
211.52
227.71
230.47
218.10
193.81
164.25
136.83
116.55
104.22
96.64
88.19
72.89
46.24
6.52
-44.26
-99.76
-149.79
-182.29
-187.31
-161.44
-110.65
-49.48
3.62
33.11
32.05
3.78
-41.08
-90.75
-137.73
-181.16
-225.05
-274.40
-331.24
-392.41
-450.35
-495.43
-518.75
-514.62
-481.94
-424.96
-352.61
-276.32
-206.63
-149.71
-105.36
-67.70
-28.54
18.03
71.90
126.64
172.34
200.53
208.19
198.92
180.51
160.76
143.48
127.62
109.40
85.97
58.30
31.39
12.01
4.75
9.10
19.52
28.20
29.19
21.45
9.20
-0.57
-2.07
6.07
20.11
33.33
39.68
36.95
27.64
17.20
10.80
10.57
14.68
18.87
19.13
14.00
5.19
-3.74
-9.36
-10.14
-6.82
-1.78
2.40
3.96
2.51
-1.17
-5.66
-9.55
-11.87
-12.43
-11.84
-11.13
-11.35
-13.01
-15.93
-19.39
-22.59
-25.11
-27.10
-29.12
-31.78
-35.38
-39.73
-44.28
-48.25
-51.02
-52.23
-51.99
-50.86
-49.94
-50.54
-53.97
-61.12
-72.15
-86.16
-101.03
-113.60
-120.47
-119.28
-110.06
-95.98
-82.78
-76.93
-82.97
-101.23
-127.08
-152.18
-167.19
-165.04
-143.31
-104.84
-56.43
-6.37
38.26
73.32
97.92
113.51
122.49
126.78
127.59
125.66
121.81
117.23
113.13
110.24
108.28
106.28
102.97
97.70
90.76
83.26
76.60
71.94
69.72
69.57
70.49
71.14
70.35
67.50
62.69
56.70
50.59
45.35
41.47
38.96
37.46
36.41
35.21
33.31
30.30
26.00
20.59
14.59
8.70
3.54
-0.57
-3.60
-5.72
-7.09
-7.78
-7.87
-7.49
-6.89
-6.32
-5.88
-5.46
-4.75
-3.40
-1.26
1.55
4.59
7.32
9.27
10.28
10.56
10.60
10.99
12.09
13.86
15.78
17.16
17.38
16.28
14.26
12.15
10.96
11.53
14.23
18.90
24.85
31.11
36.60
40.42
41.97
41.05
37.73
32.23
24.85
16.00
6.35
-3.17
-11.40
-17.41
-20.75
-21.70
-21.19
-20.46
-20.80
-23.17
-27.88
-34.45
-41.59
-47.51
-50.70
-50.70
-48.69
-47.16
-48.80
-55.03
-65.02
-75.92
-84.31
-88.11
-87.63
-85.26
-83.92
-85.28
-89.05
-93.44
-96.50
-97.30
-96.18
-94.07
-91.63
-88.96
-85.86
-82.55
-79.95
-79.28
-81.38
-86.15
-92.60
-99.32
-104.99
-108.23
-107.21
-99.43
-82.27
-54.28
-16.37
27.86
73.04
113.84
146.78
171.16
188.71
202.19
213.87
224.26
231.90
234.13
228.41
213.70
191.47
165.68
141.70
124.20
115.08
112.29
110.30
102.03
81.51
46.07
-2.71
-59.46
-116.59
-166.31
-202.47
-221.79
-224.28
-212.74
-191.79
-166.31
-140.16
-115.60
-93.38
-73.54
-56.15
-41.62
-30.22
-21.62
-14.70
-7.92
-0.14
8.78
17.98
26.10
32.16
35.90
37.84
38.67
38.77
37.93
35.55
31.07
24.41
16.17
7.55
0.04
-5.07
-6.99
-5.77
-2.19
2.34
6.37
8.83
9.36
8.31
6.40
4.37
2.67
1.50
0.81
0.54
0.75
1.58
3.15
5.47
8.31
11.24
13.63
14.90
14.71
13.12
10.71
8.34
6.85
6.76
8.08
10.45
13.39
16.56
19.81
23.05
26.13
28.75
30.57
31.30
30.80
29.18
26.63
23.48
20.03
16.61
13.47
10.76
8.54
6.76
5.32
4.11
3.01
1.89
0.60
-1.10
-3.38
-6.29
-9.65
-13.04
-15.90
-17.71
-18.29
-17.76
-16.57
-15.20
-13.89
-12.63
-11.26
-9.77
-8.41
-7.71
-8.06
-9.45
-11.36
-12.93
-13.46
-12.63
-10.68
-8.18
-5.78
-3.92
-2.76
-2.25
-2.22
-2.50
-2.90
-3.30
-3.62
-3.79
-3.79
-3.62
-3.27
-2.82
-2.43
-2.33
-2.77
-3.85
-5.55
-7.69
-10.05
-12.49
-14.91
-17.15
-18.97
-19.98
-19.80
-18.18
-15.24
-11.40
-7.32
-3.63
-0.75
1.23
2.45
3.19
3.69
4.06
4.29
4.31
4.05
3.49
2.67
1.72
0.80
0.12
-0.20
-0.08
0.45
1.33
2.48
3.80
5.11
6.18
6.70
6.45
5.44
3.99
2.65
1.95
2.10
2.90
3.74
3.97
3.20
1.48
-0.80
-3.10
-4.95
-6.08
-6.36
-5.75
-4.18
-1.69
1.50
4.94
8.08
10.36
11.44
11.27
10.04
8.10
5.86
3.72
2.00
0.91
0.53
0.72
1.25
1.90
2.50
2.99
3.38
3.72
3.99
4.10
3.93
3.31
2.16
0.58
-1.20
-2.80
-3.85
-4.11
-3.57
-2.46
-1.16
-0.06
0.57
0.65
0.29
-0.34
-1.13
-2.13
-3.45
-5.21
-7.37
-9.61
-11.47
-12.57
-12.77
-12.26
-11.42
-10.55
-9.66
-8.48
-6.67
-4.08
-0.95
2.16
4.66
6.23
6.93
7.13
7.27
7.52
7.83
7.96
7.77
7.42
7.33
7.93
9.38
11.39
13.30
14.40
14.29
12.99
10.91
8.56
6.34
4.34
2.46
0.50
-1.66
-4.01
-6.39
-8.56
-10.23
-11.14
-11.13
-10.27
-8.90
-7.54
-6.78
-7.01
-8.34
-10.46
-12.88
-15.03
-16.45
-16.93
-16.57
-15.72
-14.87
-14.53
-15.00
-16.35
-18.36
-20.71
-23.11
-25.39
-27.40
-28.95
-29.64
-28.98
-26.55
-22.22
-16.26
-9.33
-2.21
4.39
10.08
14.76
18.63
21.94
24.89
27.55
29.90
31.98
33.93
35.93
38.09
40.28
42.19
43.41
43.69
43.08
41.91
40.62
39.50
38.62
37.84
36.96
35.84
34.41
32.66
30.54
28.06
25.24
22.23
19.25
16.52
14.20
12.33
10.79
9.38
7.85
5.97
3.62
0.86
-2.08
-4.88
-7.21
-8.91
-10.05
-10.91
-11.83
-13.02
-14.46
-15.87
-16.88
-17.18
-16.69
-15.61
-14.35
-13.40
-13.05
-13.26
-13.65
-13.63
-12.73
-10.82
-8.24
-5.62
-3.60
-2.41
-1.83
-1.30
-0.27
1.43
3.48
5.31
6.43
6.73
6.48
6.19
6.30
7.02
8.24
9.68
11.00
11.93
12.30
12.12
11.56
10.94
10.66
11.07
12.27
14.11
16.27
18.47
20.50
22.34
23.96
25.40
26.77
28.37
30.70
34.33
39.53
46.09
53.30
60.35
66.76
72.60
78.30
84.12
89.53
93.14
93.16
88.16
77.86
63.23
46.00
27.92
10.05
-7.37
-24.55
-41.49
-57.60
-71.60
-81.99
-87.70
-88.57
-85.39
-79.54
-72.45
-65.01
-57.48
-49.70
-41.59
-33.54
-26.55
-21.87
-20.40
-22.07
-25.63
-29.01
-30.01
-27.18
-20.48
-11.30
-1.77
6.12
11.07
12.31
8.97
-0.25
-16.59
-39.97
-67.67
-94.17
-112.43
-116.41
-103.31
-74.60
-35.09
9.25
53.08
92.62
125.28
149.06
162.46
165.09
158.33
145.20
129.45
113.93
99.49
84.90
67.32
43.55
11.01
-31.14
-80.92
-132.91
-179.22
-211.84
-226.05
-222.69
-207.81
-189.57
-173.94
-162.20
-151.44
-137.94
-120.44
-101.11
-83.44
-68.68
-54.18
-34.86
-7.24
26.94
60.41
83.73
90.12
78.83
55.23
27.50
2.41
-17.29
-32.82
-47.26
-62.98
-80.40
-98.05
-113.48
-124.14
-127.65
-121.89
-105.29
-77.52
-40.07
3.67
48.92
90.78
125.49
151.11
167.71
176.97
181.35
183.35
184.93
187.00
189.28
190.44
188.59
181.97
169.34
150.39
125.96
98.26
70.84
48.22
34.83
33.53
44.27
63.55
84.99
100.93
104.48
91.78
63.41
24.56
-16.51
-51.14
-73.19
-81.02
-77.52
-68.31
-58.92
-52.47
-49.07
-46.70
-42.87
-35.88
-25.16
-11.11
5.16
21.63
35.32
42.74
41.15
30.01
11.63
-9.65
-29.25
-44.23
-54.30
-61.35
-67.99
-76.10
-86.18
-97.56
-109.11
-119.72
-128.35
-133.89
-134.96
-130.08
-118.35
-100.04
-76.85
-51.59
-27.17
-5.77
11.91
26.71
40.46
55.02
71.43
89.38
107.27
122.85
134.00
139.52
139.54
135.48
129.56
124.05
120.44
118.67
116.83
111.51
98.88
76.35
44.01
5.08
-35.06
-70.92
-98.99
-118.83
-132.26
-141.59
-147.98
-151.10
-150.07
-144.80
-136.51
-126.98
-117.23
-106.70
-93.97
-78.39
-61.48
-46.95
-38.88
-39.34
-46.89
-57.00
-64.00
-63.42
-53.24
-33.65
-6.03
28.03
66.84
108.10
148.52
184.06
210.90
226.71
231.37
226.69
215.56
200.81
184.62
168.34
152.62
137.69
123.28
108.81
93.51
76.93
59.21
41.24
24.37
9.91
-1.36
-9.38
-14.67
-18.11
-20.60
-22.89
-25.43
-28.48
-32.04
-35.94
-39.68
-42.54
-43.69
-42.43
-38.62
-32.90
-26.68
-21.87
-20.30
-23.24
-31.07
-43.42
-59.43
-78.28
-99.33
-121.94
-145.18
-167.46
-186.61
-200.23
-206.44
-204.40
-194.67
-179.06
-160.15
-140.67
-122.70
-107.34
-94.55
-83.50
-73.22
-63.15
-53.38
-44.43
-36.98
-31.37
-27.75
-26.24
-27.03
-30.15
-35.07
-40.42
-44.35
-45.52
-43.78
-40.30
-36.84
-34.40
-32.35
-28.51
-20.16
-5.67
14.34
37.00
58.08
73.62
81.27
81.14
75.48
67.79
61.39
58.28
58.64
61.24
64.26
66.30
66.81
66.00
64.24
61.72
58.29
53.63
47.56
40.30
32.59
25.49
20.13
17.31
17.16
19.02
21.69
23.84
24.58
23.62
21.15
17.39
12.25
5.42
-3.31
-13.43
-23.56
-31.78
-36.39
-36.89
-34.37
-31.23
-30.00
-32.12
-37.14
-42.86
-46.63
-46.78
-43.62
-39.15
-35.70
-34.40
-34.42
-33.44
-29.06
-20.31
-8.10
5.46
18.47
30.24
41.24
52.13
62.71
71.56
76.69
76.62
71.21
61.66
49.92
37.66
25.82
14.57
3.70
-6.93
-17.08
-26.11
-33.21
-37.72
-39.41
-38.63
-36.43
-34.15
-32.78
-32.40
-32.09
-30.50
-26.79
-21.35
-15.77
-12.13
-11.82
-14.73
-19.27
-23.11
-24.35
-22.46
-18.54
-14.73
-13.21
-14.95
-19.20
-23.79
-26.15
-24.57
-18.91
-10.39
-0.84
8.42
17.05
25.45
33.85
41.70
47.58
49.76
47.25
40.27
30.18
18.90
8.25
-0.53
-6.82
-10.58
-12.33
-13.00
-13.79
-15.84
-19.82
-25.65
-32.48
-39.02
-43.99
-46.51
-46.33
-43.75
-39.38
-34.06
-28.57
-23.60
-19.56
-16.47
-13.86
-10.95
-7.04
-1.93
3.80
9.01
12.49
13.62
12.69
10.79
9.16
8.54
8.83
9.45
9.92
10.33
11.38
13.71
17.24
20.96
23.29
23.03
20.01
15.25
10.29
6.31
3.58
1.44
-0.91
-3.81
-6.84
-9.20
-10.45
-10.90
-11.51
-13.22
-16.30
-20.03
-23.04
-24.12
-22.86
-19.98
-16.83
-14.56
-13.30
-11.89
-8.30
-0.57
12.20
29.50
49.49
69.80
88.29
103.73
115.92
125.50
133.55
141.04
148.34
154.82
158.79
157.81
149.54
132.78
108.27
78.83
48.69
22.32
3.08
-7.77
-11.47
-11.26
-11.11
-14.04
-20.72
-29.09
-35.25
-35.41
-27.61
-12.64
6.46
25.81
42.23
54.06
61.11
64.07
63.70
60.58
55.05
47.20
36.82
23.28
5.45
-17.73
-46.43
-78.98
-111.53
-138.84
-155.98
-160.22
-152.46
-137.22
-121.00
-109.64
-105.94
-108.64
-113.46
-115.40
-111.19
-100.50
-85.53
-69.57
-55.46
-44.72
-37.63
-33.86
-33.00
-34.69
-38.63
-44.17
-50.21
-55.40
-58.44
-58.42
-55.10
-48.93
-40.98
-32.57
-24.84
-18.42
-13.42
-9.80
-7.86
-8.36
-12.01
-18.66
-26.80
-33.94
-37.67
-36.87
-32.19
-25.52
-18.62
-12.02
-4.80
4.74
17.71
33.82
51.24
67.52
80.67
89.94
95.82
99.48
101.99
103.84
104.91
104.90
103.85
102.50
102.17
104.24
109.36
117.06
125.70
133.06
137.13
136.92
132.70
125.80
118.02
110.91
105.22
100.82
96.98
92.69
86.99
79.18
68.90
56.14
41.05
23.71
4.03
-18.04
-42.26
-67.59
-92.12
-113.50
-129.72
-140.03
-145.53
-148.91
-153.57
-162.32
-176.12
-193.66
-211.98
-227.88
-239.27
-245.75
-247.97
-246.39
-239.95
-226.01
-201.70
-165.90
-120.76
-71.53
-24.67
14.67
44.36
65.37
80.27
91.39
99.71
104.98
106.53
104.22
98.79
91.62
84.27
78.05
73.89
72.54
74.68
80.87
91.27
105.24
120.99
135.88
147.17
153.00
153.22
149.28
143.48
137.81
133.03
128.69
123.95
118.65
113.54
109.68
106.76
102.08
90.68
67.38
29.77
-19.71
-73.96
-124.39
-164.80
-194.21
-216.48
-237.21
-259.75
-282.91
-301.98
-311.80
-310.13
-298.70
-281.77
-263.32
-244.79
-225.08
-202.03
-174.46
-143.06
-109.81
-76.48
-43.56
-10.18
24.87
61.83
99.12
133.55
161.53
180.53
190.16
192.14
189.38
184.62
179.31
173.48
166.47
158.32
150.80
147.38
152.02
166.90
190.46
216.82
237.01
241.77
224.73
184.72
126.23
57.95
-9.93
-68.50
-112.04
-138.75
-150.21
-150.02
-142.32
-130.44
-116.27
-100.49
-83.27
-65.31
-48.07
-33.44
-22.69
-15.65
-10.69
-5.47
1.83
11.65
22.99
34.05
43.44
50.95
57.66
65.34
75.40
88.12
102.35
116.04
127.05
134.06
137.00
136.80
134.77
131.84
128.10
122.92
115.36
104.54
89.84
70.75
47.00
18.97
-11.74
-41.94
-67.41
-84.23
-90.37
-86.65
-76.36
-63.74
-52.13
-42.86
-35.40
-28.46
-21.41
-14.96
-10.93
-11.13
-16.27
-25.33
-35.77
-44.32
-48.22
-46.21
-38.98
-28.84
-18.82
-11.61
-8.67
-10.02
-14.62
-21.14
-28.55
-36.43
-44.77
-53.52
-62.36
-70.55
-77.12
-81.14
-81.97
-79.42
-73.78
-65.75
-56.27
-46.34
-36.82
-28.30
-21.09
-15.31
-10.96
-8.00
-6.38
-5.99
-6.63
-8.10
-10.30
-13.37
-17.66
-23.58
-31.43
-41.15
-52.18
-63.59
-74.15
-82.63
-87.98
-89.58
-87.32
-81.48
-72.62
-61.40
-48.54
-34.86
-21.32
-8.94
1.40
9.26
14.89
19.15
23.22
28.10
34.27
41.52
49.15
56.28
62.12
66.20
68.38
68.86
68.14
66.96
66.10
66.15
67.31
69.26
71.21
72.26
71.65
68.97
64.20
57.52
49.29
39.90
29.83
19.73
10.34
2.40
-3.51
-7.23
-9.07
-9.64
-9.72
-9.84
-10.17
-10.54
-10.57
-9.89
-8.32
-5.85
-2.58
1.31
5.59
9.91
13.83
16.80
18.40
18.40
16.96
14.59
12.06
10.19
9.67
10.81
13.40
16.76
20.01
22.37
23.60
24.01
24.46
25.93
29.19
34.64
42.17
51.32
61.22
70.58
77.72
80.84
78.54
70.45
57.49
41.78
25.88
12.01
1.45
-5.61
-9.68
-11.45
-11.49
-10.30
-8.53
-7.15
-7.32
-9.95
-15.24
-22.52
-30.52
-37.83
-43.50
-47.35
-49.81
-51.64
-53.44
-55.44
-57.53
-59.47
-61.11
-62.48
-63.69
-64.86
-65.93
-66.75
-67.07
-66.71
-65.56
-63.70
-61.29
-58.46
-55.40
-52.15
-48.71
-45.05
-41.18
-37.14
-33.10
-29.29
-26.01
-23.48
-21.76
-20.60
-19.46
-17.61
-14.38
-9.40
-2.66
5.48
14.54
23.99
33.38
42.19
49.87
55.80
59.48
60.79
59.97
57.60
54.24
50.36
46.25
42.26
38.83
36.41
35.15
34.83
34.73
34.11
32.56
30.34
28.29
27.43
28.43
31.34
35.52
39.91
43.26
44.40
42.38
36.72
27.52
15.66
2.62
-9.85
-20.30
-27.99
-32.97
-35.89
-37.52
-38.37
-38.56
-37.88
-36.08
-33.09
-29.05
-24.27
-19.05
-13.61
-8.00
-2.18
3.94
10.38
16.98
23.46
29.46
34.77
39.41
43.67
47.96
52.58
57.49
62.28
66.17
68.17
67.35
62.93
54.63
42.68
27.92
11.71
-4.35
-18.70
-30.19
-38.18
-42.65
-44.08
-43.31
-41.27
-38.79
-36.40
-34.30
-32.46
-30.80
-29.27
-27.94
-26.89
-26.02
-25.11
-23.88
-22.17
-20.11
-18.00
-16.20
-14.87
-13.97
-13.28
-12.62
-11.86
-11.01
-10.14
-9.32
-8.55
-7.83
-7.11
-6.35
-5.54
-4.66
-3.65
-2.51
-1.36
-0.46
-0.16
-0.74
-2.32
-4.74
-7.62
-10.46
-12.81
-14.40
-15.21
-15.41
-15.28
-15.04
-14.82
-14.64
-14.50
-14.43
-14.50
-14.77
-15.17
-15.47
-15.28
-14.26
-12.24
-9.39
-6.05
-2.67
0.47
3.32
5.95
8.40
10.61
12.35
13.41
13.72
13.42
12.84
12.32
12.11
12.24
12.54
12.78
12.82
12.66
12.45
12.33
12.32
12.27
11.85
10.84
9.23
7.31
5.51
4.25
3.69
3.64
3.70
3.49
2.82
1.78
0.63
-0.37
-1.10
-1.62
-2.15
-2.90
-3.96
-5.32
-6.86
-8.47
-10.06
-11.61
-13.17
-14.79
-16.40
-17.91
-19.14
-19.92
-20.14
-19.79
-18.85
-17.34
-15.27
-12.73
-9.91
-7.11
-4.64
-2.73
-1.41
-0.57
-0.01
0.43
0.84
1.26
1.79
2.55
3.62
4.97
6.42
7.76
8.81
9.53
9.95
10.15
10.17
10.05
9.88
9.81
9.93
10.23
10.50
10.46
9.91
8.93
7.81
6.93
6.52
6.53
6.71
6.73
6.38
5.63
4.60
3.38
2.02
0.51
-1.13
-2.83
-4.41
-5.73
-6.77
-7.66
-8.60
-9.75
-11.08
-12.36
-13.28
-13.58
-13.19
-12.27
-11.07
-9.74
-8.31
-6.67
-4.70
-2.44
-0.19
1.63
2.73
3.09
3.03
2.98
3.28
3.96
4.78
5.40
5.67
5.70
5.77
6.13
6.79
7.53
8.00
7.92
7.30
6.37
5.49
4.91
4.67
4.59
4.43
3.98
3.26
2.45
1.84
1.65
1.94
2.56
3.26
3.80
4.13
4.36
4.71
5.29
6.08
6.83
7.25
7.09
6.29
4.96
3.31
1.54
-0.21
-1.85
-3.37
-4.76
-6.05
-7.27
-8.43
-9.55
-10.62
-11.56
-12.27
-12.63
-12.50
-11.84
-10.70
-9.22
-7.55
-5.89
-4.30
-2.81
-1.41
-0.15
0.88
1.55
1.77
1.57
1.10
0.54
0.08
-0.14
-0.06
0.35
1.10
2.11
3.26
4.38
5.26
5.81
6.02
6.03
5.99
6.02
6.13
6.23
6.26
6.24
6.30
6.53
6.91
7.21
7.12
6.42
5.09
3.43
1.80
0.52
-0.30
-0.71
-0.81
-0.71
-0.45
-0.12
0.11
0.03
-0.47
-1.35
-2.41
-3.43
-4.26
-4.95
-5.58
-6.17
-6.63
-6.72
-6.29
-5.32
-3.97
-2.49
-1.07
0.26
1.63
3.19
5.06
7.18
9.35
11.34
12.96
14.10
14.69
14.69
13.93
12.19
9.22
4.99
-0.29
-6.15
-11.98
-17.25
-21.59
-24.88
-27.06
-28.05
-27.80
-26.30
-23.73
-20.45
-16.94
-13.67
-10.93
-8.87
-7.50
-6.80
-6.68
-7.02
-7.56
-8.01
-8.04
-7.47
-6.28
-4.67
-2.87
-1.09
0.56
2.10
3.53
4.87
6.08
7.14
8.01
8.64
9.03
9.14
8.89
8.21
7.11
5.65
3.99
2.31
0.71
-0.73
-2.04
-3.22
-4.35
-5.49
-6.81
-8.41
-10.30
-12.29
-14.00
-15.02
-15.06
-14.18
-12.68
-11.08
-9.80
-9.01
-8.65
-8.49
-8.34
-8.09
-7.74
-7.31
-6.77
-5.97
-4.70
-2.78
-0.13
3.14
6.72
10.15
12.94
14.79
15.63
15.64
15.18
14.56
13.95
13.33
12.60
11.69
10.66
9.69
8.94
8.53
8.41
8.43
8.47
8.46
8.46
8.53
8.69
8.84
8.83
8.55
8.03
7.51
7.28
7.56
8.31
9.26
9.96
10.05
9.36
8.04
6.39
4.75
3.32
2.17
1.26
0.51
-0.05
-0.33
-0.27
0.16
0.89
1.75
2.55
3.11
3.34
3.19
2.70
1.96
1.04
0.01
-1.07
-2.21
-3.43
-4.78
-6.36
-8.27
-10.59
-13.30
-16.25
-19.11
-21.53
-23.21
-24.00
-23.99
-23.45
-22.75
-22.22
-21.96
-21.71
-20.80
-18.26
-13.13
-4.79
6.74
20.71
35.83
50.67
64.07
75.52
85.21
93.83
102.24
111.06
120.33
129.41
137.20
142.45
144.26
142.31
136.85
128.50
118.10
106.62
95.04
84.14
74.10
64.20
52.96
38.90
21.51
2.03
-16.62
-31.05
-38.94
-40.37
-38.00
-35.92
-37.81
-45.40
-57.81
-72.22
-85.21
-94.21
-98.31
-98.13
-95.23
-91.12
-86.82
-82.69
-78.96
-76.08
-74.86
-76.09
-79.97
-85.63
-91.22
-94.54
-93.94
-89.13
-81.26
-72.35
-64.23
-57.61
-51.73
-44.89
-35.35
-22.39
-6.81
9.35
23.68
34.34
40.75
43.56
44.20
44.05
44.01
44.29
44.72
45.13
45.57
46.39
47.92
50.15
52.66
54.68
55.46
54.73
52.85
50.63
49.03
48.55
49.11
50.04
50.46
49.78
48.06
46.00
44.69
45.10
47.59
51.80
56.74
61.36
65.08
68.05
71.08
75.05
80.27
86.09
91.06
93.59
92.78
89.00
83.69
78.55
74.60
71.27
66.46
57.24
40.86
15.56
-18.86
-61.05
-108.12
-155.70
-198.03
-228.42
-240.51
-230.28
-198.25
-150.44
-97.41
-51.11
-21.07
-11.24
-19.35
-38.65
-61.30
-81.59
-97.32
-109.24
-119.01
-127.37
-133.46
-135.68
-133.36
-127.75
-121.87
-119.08
-121.29
-127.83
-135.56
-140.34
-138.85
-130.07
-115.50
-98.26
-81.65
-68.01
-58.32
-52.66
-51.00
-53.72
-61.50
-74.39
-91.01
-107.93
-120.28
-122.96
-112.24
-87.04
-49.20
-2.92
46.53
93.89
134.91
166.73
188.13
199.49
202.66
200.40
195.50
189.86
184.04
177.52
169.59
160.11
149.86
140.14
131.90
125.12
118.73
111.32
101.97
90.79
78.80
67.28
57.07
48.28
40.38
32.84
25.56
19.16
14.79
13.59
16.21
22.33
30.49
38.31
42.89
41.55
32.42
14.99
-9.56
-38.41
-67.50
-92.40
-109.49
-117.23
-116.88
-112.22
-108.07
-108.18
-113.65
-122.60
-131.49
-137.12
-138.36
-136.43
-133.91
-133.05
-134.45
-136.68
-137.02
-132.60
-121.53
-103.44
-79.67
-52.86
-26.26
-2.91
14.96
26.41
31.57
31.22
26.54
19.14
11.33
6.05
6.13
13.06
26.01
41.60
54.95
61.62
59.40
49.16
34.46
20.01
9.96
6.62
10.12
18.86
30.50
42.80
54.32
64.43
73.14
80.56
86.68
91.17
93.65
93.90
92.15
88.96
85.08
81.17
77.62
74.44
71.47
68.50
65.35
61.80
57.47
51.88
44.60
35.60
25.50
15.42
6.62
0.03
-4.10
-6.04
-6.31
-5.30
-3.19
-0.16
3.34
6.52
8.49
8.72
7.32
5.00
2.73
1.23
0.71
0.92
1.47
2.09
2.76
3.45
3.92
3.59
1.64
-2.61
-9.38
-18.22
-28.10
-37.73
-45.83
-51.46
-54.14
-53.94
-51.42
-47.55
-43.46
-40.23
-38.61
-38.86
-40.69
-43.44
-46.30
-48.56
-49.77
-49.85
-49.07
-47.87
-46.65
-45.50
-44.01
-41.49
-37.44
-31.97
-25.97
-20.75
-17.43
-16.18
-16.05
-15.26
-12.02
-5.47
3.88
14.20
23.08
28.57
29.98
28.17
25.18
23.30
24.12
27.82
33.15
37.96
39.94
37.33
29.28
16.07
-0.77
-18.51
-33.52
-42.23
-42.10
-32.63
-15.57
5.66
27.22
46.07
60.60
70.56
76.53
79.33
79.77
78.71
77.17
76.17
76.44
78.05
80.28
81.86
81.44
78.03
71.38
61.96
50.77
38.91
27.31
16.57
6.92
-1.62
-9.18
-15.89
-21.78
-26.79
-30.80
-33.58
-35.00
-35.00
-33.74
-31.51
-28.81
-26.23
-24.50
-24.33
-26.30
-30.64
-36.98
-44.29
-51.10
-55.93
-57.87
-56.86
-53.66
-49.46
-45.37
-41.94
-39.13
-36.47
-33.41
-29.70
-25.44
-20.95
-16.62
-12.67
-9.09
-5.75
-2.57
0.41
2.93
4.71
5.53
5.43
4.73
3.93
3.55
3.91
5.03
6.59
8.14
9.21
9.53
9.03
7.92
6.49
4.99
3.65
2.50
1.48
0.42
-0.86
-2.47
-4.34
-6.26
-7.85
-8.70
-8.55
-7.37
-5.36
-2.94
-0.56
1.43
2.78
3.36
3.16
2.28
0.89
-0.76
-2.42
-3.89
-5.08
-5.96
-6.59
-6.96
-7.09
-7.01
-6.75
-6.39
-5.95
-5.38
-4.59
-3.49
-2.11
-0.63
0.67
1.54
1.85
1.67
1.17
0.56
-0.10
-0.85
-1.83
-3.18
-4.89
-6.81
-8.64
-10.06
-10.97
-11.50
-12.00
-12.78
-13.89
-14.98
-15.48
-14.81
-12.76
-9.52
-5.55
-1.35
2.83
6.94
10.96
14.64
17.49
18.93
18.59
16.47
13.01
8.88
4.75
1.06
-2.08
-4.80
-7.30
-9.56
-11.21
-11.52
-9.69
-5.26
1.54
9.69
17.81
24.68
29.78
33.35
36.06
38.39
40.29
41.26
40.77
38.72
35.59
32.21
29.19
26.66
24.17
21.19
17.47
13.24
9.03
5.23
1.80
-1.72
-5.93
-11.10
-16.92
-22.66
-27.47
-30.70
-32.21
-32.17
-30.86
-28.45
-24.97
-20.45
-15.12
-9.56
-4.52
-0.71
1.57
2.52
2.73
2.88
3.39
4.27
5.17
5.72
5.67
5.15
4.49
4.08
4.08
4.40
4.86
5.33
5.90
6.96
8.97
12.38
17.38
23.89
31.52
39.59
47.19
53.24
56.69
56.81
53.48
47.44
40.07
33.03
27.55
24.05
21.96
20.14
17.45
13.34
8.00
2.10
-3.62
-8.80
-13.51
-18.15
-23.03
-28.13
-33.04
-37.22
-40.32
-42.45
-44.19
-46.32
-49.38
-53.36
-57.60
-61.13
-63.07
-63.06
-61.32
-58.42
-55.00
-51.47
-47.91
-44.21
-40.21
-35.82
-31.00
-25.79
-20.35
-14.98
-10.10
-6.08
-3.14
-1.17
0.24
1.59
3.26
5.42
8.05
11.04
14.25
17.58
20.89
23.97
26.62
28.62
29.83
30.20
29.76
28.58
26.82
24.69
22.45
20.36
18.59
17.19
16.10
15.21
14.37
13.51
12.66
11.86
11.20
10.70
10.34
10.04
9.80
9.74
10.10
11.08
12.70
14.68
16.55
17.83
18.33
18.23
18.01
18.12
18.77
19.85
20.97
21.73
21.85
21.31
20.21
18.74
17.02
15.08
13.01
11.01
9.37
8.50
8.67
9.94
12.06
14.52
16.76
18.49
19.72
20.80
22.18
24.15
26.74
29.71
32.70
35.42
37.76
39.77
41.52
43.02
44.13
44.64
44.45
43.67
42.61
41.63
40.90
40.28
39.45
38.19
36.69
35.44
34.75
34.28
32.74
28.48
20.34
8.58
-5.01
-17.77
-27.42
-33.06
-35.45
-36.34
-37.42
-39.55
-42.55
-45.75
-48.60
-50.95
-53.06
-55.16
-57.21
-58.83
-59.50
-58.88
-56.99
-54.29
-51.52
-49.46
-48.63
-49.06
-50.27
-51.52
-52.10
-51.70
-50.54
-49.21
-48.36
-48.30
-48.87
-49.55
-49.83
-49.48
-48.67
-47.77
-47.08
-46.58
-45.86
-44.37
-41.64
-37.58
-32.46
-26.84
-21.33
-16.37
-12.09
-8.40
-5.02
-1.72
1.55
4.66
7.33
9.30
10.57
11.41
12.32
13.67
15.51
17.46
18.90
19.30
18.53
16.93
15.13
13.74
13.08
13.18
13.87
14.94
16.25
17.69
19.08
20.19
20.73
20.57
19.72
18.41
16.91
15.45
14.08
12.74
11.21
9.31
6.95
4.21
1.28
-1.60
-4.25
-6.63
-8.80
-10.86
-12.83
-14.57
-15.78
-16.12
-15.43
-13.83
-11.78
-9.92
-8.85
-8.85
-9.79
-11.14
-12.26
-12.62
-12.10
-10.88
-9.36
-7.90
-6.62
-5.43
-4.15
-2.70
-1.20
0.08
0.84
0.93
0.44
-0.39
-1.23
-1.76
-1.79
-1.32
-0.46
0.54
1.40
1.94
2.16
2.15
2.04
1.88
1.62
1.20
0.58
-0.18
-1.03
-2.02
-3.33
-5.15
-7.44
-9.87
-11.80
-12.68
-12.24
-10.73
-8.72
-6.79
-5.34
-4.37
-3.69
-3.06
-2.35
-1.54
-0.60
0.53
1.91
3.56
5.40
7.25
8.98
10.53
11.92
13.18
14.29
15.09
15.38
15.01
13.97
12.38
10.52
8.64
6.98
5.65
4.71
4.19
4.10
4.44
5.20
6.40
7.97
9.78
11.62
13.28
14.59
15.44
15.80
15.66
14.95
13.55
11.46
8.78
5.81
2.91
0.41
-1.58
-3.07
-4.19
-5.04
-5.62
-5.93
-6.00
-6.04
-6.27
-6.91
-7.96
-9.27
-10.55
-11.50
-11.88
-11.61
-10.68
-9.22
-7.40
-5.43
-3.52
-1.85
-0.62
0.02
0.05
-0.38
-0.93
-1.24
-1.01
-0.27
0.72
1.58
2.03
2.07
1.93
1.85
2.00
2.34
2.70
2.98
3.13
3.20
3.24
3.17
2.91
2.39
1.60
0.66
-0.32
-1.22
-2.03
-2.74
-3.48
-4.32
-5.38
-6.73
-8.32
-10.01
-11.59
-12.90
-13.91
-14.76
-15.65
-16.81
-18.33
-20.20
-22.33
-24.59
-26.85
-28.90
-30.51
-31.40
-31.34
-30.27
-28.33
-25.89
-23.36
-21.05
-19.11
-17.54
-16.25
-15.11
-13.98
-12.75
-11.31
-9.61
-7.71
-5.77
-3.98
-2.50
-1.43
-0.76
-0.45
-0.37
-0.40
-0.39
-0.19
0.26
0.93
1.68
2.38
2.93
3.37
3.84
4.44
5.19
6.01
6.77
7.36
7.75
7.97
8.08
8.11
8.03
7.78
7.25
6.40
5.25
3.92
2.62
1.55
0.89
0.64
0.68
0.80
0.80
0.69
0.70
1.15
2.28
4.10
6.33
8.60
10.64
12.43
14.18
16.11
18.30
20.59
22.72
24.54
26.16
27.94
30.24
33.22
36.70
40.21
43.23
45.50
47.14
48.67
50.78
54.04
58.59
64.02
69.52
74.18
77.37
79.04
79.84
80.89
83.34
87.89
94.42
102.05
109.52
115.72
120.14
122.78
123.90
123.34
120.06
112.12
97.15
72.89
37.73
-8.95
-66.25
-131.16
-197.79
-257.57
-300.68
-318.92
-308.81
-273.52
-222.17
-166.67
-117.60
-81.03
-57.64
-44.18
-36.11
-29.74
-23.09
-15.51
-6.93
2.56
12.75
23.20
33.31
42.52
50.57
57.32
62.41
65.03
64.16
59.15
50.31
39.00
27.24
16.76
8.40
1.97
-3.39
-8.42
-13.22
-17.31
-20.07
-21.31
-21.68
-22.41
-24.78
-29.33
-35.55
-41.97
-46.70
-48.13
-45.42
-38.58
-28.31
-15.69
-2.01
11.40
23.29
32.72
39.40
43.78
46.97
50.36
55.07
61.43
68.90
76.34
82.66
87.57
91.73
96.64
103.81
114.02
126.86
140.70
153.36
162.82
167.89
168.35
164.68
157.61
147.70
135.20
120.02
101.90
80.47
55.39
26.56
-5.55
-39.53
-72.82
-101.86
-122.80
-132.75
-130.79
-118.53
-99.67
-78.74
-59.55
-43.87
-31.12
-19.04
-5.13
11.72
30.42
47.73
59.43
61.75
52.54
31.71
0.74
-38.16
-82.67
-130.42
-178.51
-223.07
-259.48
-283.44
-292.45
-286.81
-269.60
-245.53
-219.31
-194.25
-171.79
-151.80
-133.50
-116.25
-99.93
-84.92
-71.65
-60.17
-50.02
-40.29
-29.92
-18.13
-4.80
9.41
23.16
34.88
43.31
48.09
49.96
50.60
51.97
55.45
61.33
68.57
75.43
80.21
82.02
80.96
77.83
73.61
68.99
64.41
60.18
56.71
54.42
53.50
53.74
54.55
55.23
55.28
54.56
53.10
50.86
47.60
42.94
36.68
28.97
20.27
11.26
2.68
-4.77
-10.47
-13.87
-14.73
-13.20
-9.88
-5.64
-1.32
2.55
5.88
8.90
11.97
15.26
18.72
22.17
25.40
28.29
30.78
32.85
34.48
35.58
35.93
35.37
33.88
31.74
29.45
27.48
26.13
25.38
24.91
23.95
21.52
16.78
9.23
-0.97
-12.78
-24.18
-32.56
-35.71
-33.58
-28.73
-25.79
-29.69
-43.54
-67.19
-95.96
-122.40
-138.84
-140.98
-129.53
-109.33
-86.73
-67.30
-54.89
-51.43
-57.17
-68.65
-80.51
-86.64
-81.96
-64.48
-36.30
-2.09
29.81
52.33
62.82
63.23
58.21
52.12
47.17
44.16
42.27
41.38
43.24
50.38
64.59
86.27
114.45
146.77
179.89
209.57
229.08
232.99
218.28
185.35
138.38
84.23
30.49
-16.74
-54.21
-81.51
-99.44
-109.27
-112.16
-109.27
-102.09
-92.47
-82.25
-72.61
-63.60
-54.05
-42.59
-28.74
-13.40
1.40
13.34
20.68
22.84
20.35
14.64
7.45
0.54
-4.47
-6.38
-4.80
-0.37
5.30
10.25
13.06
13.48
12.49
11.75
12.80
16.37
22.28
29.75
37.83
45.79
53.25
59.93
65.60
69.90
72.49
73.10
71.71
68.65
64.48
59.89
55.41
51.34
47.76
44.80
42.75
42.05
42.88
44.68
45.95
44.47
38.13
25.86
8.17
-12.99
-34.98
-55.34
-72.45
-85.73
-95.35
-102.05
-106.84
-110.97
-115.71
-121.94
-129.92
-139.15
-148.60
-157.29
-164.71
-170.97
-176.37
-180.92
-183.95
-184.18
-180.23
-171.17
-156.93
-138.07
-115.45
-89.77
-61.56
-31.47
-0.62
29.20
55.96
78.16
95.56
109.33
121.61
134.59
149.56
166.37
183.64
199.41
211.97
220.55
225.50
228.21
230.69
235.14
243.12
254.92
268.94
281.73
288.83
286.11
271.32
244.97
210.04
170.72
130.73
92.00
54.32
16.30
-23.00
-62.90
-101.00
-134.17
-160.17
-178.65
-191.12
-199.86
-206.49
-211.13
-212.59
-209.49
-201.42
-189.44
-175.56
-161.67
-148.58
-135.93
-122.84
-108.91
-94.74
-81.77
-71.55
-64.98
-61.89
-61.18
-61.46
-61.62
-61.27
-60.65
-60.24
-60.38
-60.97
-61.51
-61.30
-59.73
-56.49
-51.66
-45.65
-39.00
-32.29
-25.95
-20.24
-15.29
-11.13
-7.77
-5.17
-3.20
-1.62
-0.14
1.50
3.40
5.51
7.63
9.55
11.17
12.51
13.71
14.91
16.15
17.31
18.14
18.36
17.81
16.51
14.79
13.15
12.11
12.00
12.85
14.36
16.10
17.64
18.63
18.82
18.10
16.43
13.92
10.79
7.40
4.08
1.05
-1.59
-3.83
-5.55
-6.55
-6.54
-5.32
-2.93
0.32
3.98
7.53
10.49
12.45
13.08
12.20
9.76
6.02
1.57
-2.78
-6.18
-8.03
-8.15
-6.84
-4.72
-2.44
-0.50
0.94
2.06
3.18
4.58
6.28
8.00
9.32
9.83
9.25
7.66
5.31
2.63
0.07
-1.98
-3.21
-3.44
-2.57
-0.71
1.81
4.50
6.86
8.58
9.71
10.55
11.52
12.92
14.75
16.79
18.70
20.23
21.26
21.90
22.25
22.40
22.39
22.21
21.88
21.49
21.17
21.01
21.04
21.15
21.16
20.88
20.13
18.87
17.14
15.11
13.04
11.18
9.72
8.64
7.78
6.87
5.75
4.40
3.02
1.94
1.45
1.65
2.37
3.33
4.18
4.66
4.61
3.97
2.69
0.78
-1.64
-4.34
-6.92
-8.94
-10.01
-9.91
-8.75
-6.89
-4.91
-3.34
-2.56
-2.62
-3.26
-4.07
-4.61
-4.56
-3.80
-2.43
-0.66
1.19
2.77
3.85
4.30
4.09
3.33
2.17
0.81
-0.64
-2.06
-3.40
-4.61
-5.72
-6.80
-8.01
-9.53
-11.49
-13.86
-16.38
-18.58
-19.88
-19.81
-18.21
-15.35
-11.82
-8.29
-5.25
-2.84
-0.86
1.02
3.13
5.57
8.33
11.23
14.08
16.72
18.96
20.60
21.46
21.40
20.47
18.91
17.11
15.51
14.43
13.98
14.01
14.21
14.28
14.12
13.81
13.53
13.46
13.55
13.67
13.66
13.43
13.04
12.56
12.06
11.52
10.95
10.36
9.89
9.66
9.66
9.68
9.31
8.14
5.91
2.75
-1.03
-4.91
-8.45
-11.38
-13.69
-15.51
-17.06
-18.49
-19.85
-21.12
-22.28
-23.42
-24.68
-26.20
-27.91
-29.50
-30.51
-30.54
-29.43
-27.38
-24.78
-22.08
-19.58
-17.52
-16.10
-15.64
-16.46
-18.63
-21.75
-24.96
-27.17
-27.46
-25.46
-21.36
-15.71
-9.07
-1.77
6.08
14.48
23.21
31.71
39.13
44.63
47.77
48.65
47.90
46.61
45.85
46.29
47.80
49.29
48.94
44.96
36.51
24.30
10.70
-1.28
-9.18
-12.49
-13.17
-14.86
-21.63
-36.56
-61.09
-94.95
-136.32
-181.84
-226.39
-263.49
-286.49
-290.33
-273.22
-237.06
-186.31
-125.85
-59.43
10.21
79.69
143.28
192.43
217.64
211.78
173.40
108.17
27.83
-53.18
-121.60
-168.44
-190.44
-189.06
-168.21
-131.78
-82.24
-21.30
47.93
118.78
180.70
221.66
232.81
212.97
169.87
117.61
70.88
39.43
25.31
23.92
28.08
32.20
34.43
35.84
38.03
40.86
42.19
39.28
31.09
19.59
9.36
5.40
10.48
23.62
40.44
55.17
63.24
63.00
55.93
45.48
35.33
28.03
24.72
25.54
30.32
38.73
49.96
62.26
72.89
78.80
77.89
69.93
56.84
41.88
28.19
17.51
9.83
3.85
-1.93
-8.50
-16.15
-24.87
-34.58
-45.21
-56.30
-66.86
-75.55
-81.48
-84.64
-86.16
-87.91
-91.69
-98.95
-110.67
-127.47
-149.30
-174.99
-201.78
-225.65
-242.51
-249.56
-246.30
-234.19
-215.65
-192.70
-166.24
-136.15
-102.02
-63.78
-22.06
21.87
66.26
108.93
147.33
178.74
200.94
212.78
214.64
208.39
196.44
181.17
164.33
146.99
129.90
113.78
99.46
87.60
78.47
71.71
66.57
62.14
57.80
53.46
49.52
46.69
45.58
46.35
48.66
51.74
54.72
56.88
57.94
58.22
58.52
59.91
63.27
68.89
76.32
84.46
92.04
98.27
103.31
108.19
114.27
122.35
131.98
141.31
147.66
148.52
142.49
129.61
111.03
88.32
62.74
34.76
4.26
-29.33
-66.81
-109.06
-156.49
-208.04
-260.24
-307.08
-341.41
-357.35
-352.73
-330.11
-295.68
-256.53
-218.00
-182.28
-148.88
-116.27
-83.48
-50.76
-19.27
9.62
34.74
55.13
69.91
78.28
79.70
74.05
61.51
42.81
19.61
-4.92
-26.12
-38.86
-39.29
-26.80
-4.73
20.61
42.36
55.73
59.62
56.39
50.14
44.57
41.48
40.60
40.31
38.94
35.54
30.08
23.13
15.46
7.73
0.45
-5.80
-10.39
-12.67
-12.35
-9.77
-6.04
-2.63
-0.89
-1.48
-4.12
-7.66
-10.54
-11.37
-9.38
-4.64
2.08
9.64
16.78
22.44
25.75
26.14
23.48
18.15
11.17
4.02
-1.86
-5.52
-6.84
-6.64
-6.30
-7.26
-10.42
-15.72
-22.04
-27.53
-30.28
-29.01
-23.59
-15.09
-5.32
4.02
11.85
18.00
22.81
26.66
29.57
31.22
31.42
30.42
29.08
28.53
29.64
32.50
36.38
40.10
42.51
43.12
42.22
40.79
40.06
40.95
43.72
47.90
52.53
56.54
59.24
60.43
60.45
59.89
59.34
59.07
59.02
58.86
58.10
56.36
53.48
49.53
44.85
39.90
35.01
29.96
23.70
14.35
-0.01
-20.35
-45.71
-73.08
-98.29
-117.67
-129.54
-134.79
-136.04
-136.16
-136.68
-137.26
-136.23
-131.90
-123.66
-112.43
-100.24
-89.32
-81.20
-76.14
-73.14
-70.39
-66.13
-59.28
-49.88
-39.08
-28.55
-19.80
-13.61
-9.76
-7.27
-4.77
-0.60
7.22
20.80
41.72
69.88
102.60
134.84
160.27
173.54
172.52
159.24
139.24
119.30
104.95
98.67
100.28
107.44
117.02
126.15
132.65
135.02
132.33
124.26
111.09
94.87
78.28
64.15
54.48
49.99
49.99
52.85
56.91
61.58
69.34
84.28
110.04
147.31
192.25
237.03
272.41
291.28
283.83
247.89
188.43
115.68
41.08
-26.96
-84.62
-131.45
-168.11
-195.10
-211.68
-218.00
-215.88
-208.49
-199.32
-190.85
-183.97
-178.09
-172.13
-164.46
-154.38
-142.37
-129.83
-118.39
-109.09
-102.02
-96.44
-91.42
-85.73
-78.82
-70.88
-62.71
-55.23
-49.07
-44.30
-40.54
-37.28
-33.89
-30.06
-25.83
-21.53
-17.55
-14.19
-11.45
-9.21
-7.23
-5.29
-3.23
-1.04
1.18
3.33
5.29
7.04
8.60
10.03
11.35
12.61
13.81
14.96
16.05
17.09
18.09
19.11
20.18
21.31
22.53
23.78
24.91
25.75
26.10
25.79
24.67
22.62
19.58
15.58
10.66
4.90
-1.48
-8.26
-15.03
-21.34
-26.75
-30.87
-33.49
-34.67
-34.69
-33.97
-32.90
-31.77
-30.55
-29.12
-27.25
-24.82
-22.01
-19.22
-16.95
-15.55
-15.05
-15.05
-14.90
-13.99
-12.06
-9.41
-6.87
-5.40
-5.76
-8.05
-11.71
-15.72
-19.09
-21.21
-22.21
-22.79
-23.83
-26.12
-30.31
-36.76
-45.28
-54.65
-62.23
-64.45
-57.92
-41.16
-15.60
14.48
43.44
66.44
81.02
87.44
87.45
82.91
74.76
63.13
48.20
31.09
13.95
-0.71
-10.16
-12.99
-9.57
-1.66
8.28
17.82
25.06
28.80
28.63
24.96
18.71
11.15
3.49
-3.49
-9.65
-15.36
-21.00
-26.68
-32.09
-36.85
-40.76
-43.94
-46.57
-48.63
-49.55
-48.53
-44.85
-38.25
-28.98
-17.42
-3.51
13.32
33.57
56.84
81.05
102.52
116.96
120.68
111.59
89.60
56.40
14.85
-31.39
-78.00
-120.10
-152.59
-171.50
-175.32
-165.61
-146.22
-121.72
-95.65
-69.71
-44.25
-19.05
4.78
24.45
36.68
39.95
35.60
27.36
19.50
14.80
14.60
17.79
21.71
23.88
23.79
22.78
22.38
22.54
21.50
18.62
13.90
7.79
0.69
-6.88
-14.71
-22.88
-30.71
-35.21
-28.79
-3.98
41.72
103.24
169.68
228.12
268.03
284.77
267.85
218.55
152.14
89.27
42.28
11.32
-9.27
-24.21
-34.58
-39.36
-36.11
-25.33
-11.66
-1.54
0.90
-3.97
-12.30
-19.17
-21.43
-17.39
-8.58
0.49
4.64
0.51
-11.81
-29.87
-49.99
-68.68
-81.34
-83.52
-72.51
-48.62
-15.21
22.39
58.42
88.81
111.22
126.41
136.55
142.63
143.01
134.61
115.40
85.91
48.36
6.00
-37.05
-77.07
-112.22
-143.10
-171.63
-198.88
-223.93
-244.28
-259.88
-271.68
-280.75
-288.74
-297.97
-310.29
-325.47
-340.91
-335.79
-299.76
-238.24
-168.00
-105.71
-60.53
-34.37
-24.58
-25.95
-31.97
-38.86
-43.09
-40.29
-27.83
-6.40
20.07
46.50
69.19
87.30
101.00
106.24
104.51
99.39
94.65
93.18
97.03
107.39
124.14
144.21
163.44
179.22
190.18
196.94
202.06
209.18
221.22
238.55
257.34
271.08
273.69
260.87
231.81
189.68
140.61
91.65
48.48
13.56
-13.97
-36.42
-56.66
-75.50
-90.57
-96.98
-89.70
-65.64
-24.58
30.76
95.97
164.65
229.47
283.01
318.50
331.04
319.43
287.36
242.33
193.44
147.28
107.33
74.49
47.92
25.78
6.23
-11.87
-29.02
-44.93
-60.15
-74.50
-86.77
-90.86
-81.12
-57.62
-26.49
0.96
22.15
35.87
41.37
40.86
35.69
26.43
13.02
-4.54
-25.84
-49.89
-77.19
-108.98
-146.53
-190.40
-239.03
-287.45
-327.10
-348.12
-342.73
-309.10
-250.87
-174.93
-88.91
0.33
86.75
164.33
226.47
267.09
282.17
272.57
244.60
207.85
171.61
141.91
120.48
105.71
94.35
82.93
68.83
50.38
26.88
-1.18
-31.87
-61.92
-87.84
-107.03
-119.15
-126.20
-132.04
-141.13
-156.96
-180.82
-210.89
-242.50
-269.38
-285.97
-290.01
-284.10
-275.18
-271.99
-281.26
-304.51
-337.11
-370.03
-393.52
-400.71
-389.71
-363.24
-326.88
-286.82
-248.21
-214.50
-187.39
-166.81
-151.24
-137.93
-123.60
-105.33
-81.36
-51.58
-17.46
18.48
53.34
84.42
109.56
127.11
135.87
135.20
125.09
106.52
82.00
55.74
33.33
20.55
21.62
37.55
65.46
99.31
131.78
156.68
170.67
173.75
168.46
158.56
147.66
138.58
132.98
131.41
133.26
136.88
139.93
140.15
136.11
127.79
116.69
105.01
94.64
86.32
79.31
72.19
63.87
54.36
44.90
37.25
32.69
31.38
32.37
34.11
35.43
36.01
36.36
37.20
38.85
41.00
42.79
43.49
42.92
41.67
40.69
40.82
42.20
44.18
45.56
45.13
42.15
36.57
28.99
20.51
12.55
6.61
4.06
5.66
11.24
19.50
28.27
35.29
38.88
38.57
35.01
29.42
22.91
16.06
9.01
1.88
-4.74
-9.85
-12.60
-12.93
-11.89
-11.32
-12.91
-17.21
-23.20
-28.67
-31.10
-28.87
-21.95
-11.93
-1.28
7.60
13.25
15.33
14.41
11.39
7.03
1.85
-3.76
-9.16
-13.38
-15.30
-14.12
-9.71
-2.82
5.23
12.95
19.05
22.66
23.27
20.73
15.35
7.97
-0.16
-7.66
-13.42
-17.05
-18.86
-19.76
-20.75
-22.55
-25.34
-28.75
-32.04
-34.47
-35.67
-35.78
-35.50
-35.59
-36.51
-38.08
-39.42
-39.40
-37.20
-32.61
-26.04
-18.13
-9.41
-0.23
8.94
17.34
23.85
27.44
27.62
24.65
19.38
12.82
5.79
-1.00
-6.78
-10.50
-11.22
-8.80
-4.67
-1.72
-3.35
-11.70
-26.11
-42.84
-56.31
-61.44
-55.82
-40.63
-19.79
1.77
19.80
31.51
35.48
31.33
19.65
2.17
-18.22
-38.26
-55.47
-69.00
-79.54
-88.15
-94.75
-97.71
-94.84
-85.22
-70.47
-54.66
-42.40
-36.56
-36.92
-40.33
-42.43
-39.65
-30.53
-16.04
1.28
18.48
33.43
45.71
57.06
70.82
90.41
117.37
149.77
182.08
207.18
219.26
216.79
203.23
185.38
169.98
160.52
155.97
152.03
143.93
129.08
108.19
84.70
62.81
45.90
35.87
33.42
38.75
51.96
72.82
100.46
132.95
167.30
199.68
225.73
241.10
242.23
227.37
197.38
155.99
109.08
62.95
22.32
-11.11
-38.96
-64.99
-93.15
-125.57
-161.54
-197.61
-228.80
-250.25
-258.93
-254.76
-240.65
-221.39
-201.90
-185.52
-173.15
-163.48
-154.17
-143.36
-130.65
-117.12
-104.54
-94.09
-85.78
-78.40
-70.36
-60.64
-49.34
-37.82
-27.84
-20.70
-16.40
-13.50
-9.62
-2.52
8.66
22.83
37.25
48.61
54.45
54.02
48.33
39.36
28.85
17.61
5.52
-7.71
-21.61
-34.63
-44.40
-48.68
-46.36
-38.03
-25.74
-12.27
-0.19
8.89
14.51
17.07
17.23
15.34
11.31
4.98
-3.27
-12.15
-19.55
-23.32
-22.13
-16.14
-6.84
3.56
13.06
20.55
25.96
29.92
33.18
35.95
37.75
37.54
34.15
26.97
16.37
3.96
-7.68
-15.61
-17.35
-11.86
-0.00
15.42
30.39
40.97
44.69
41.49
33.75
25.33
19.88
19.42
23.69
30.66
37.69
42.66
44.58
43.46
39.81
34.16
27.04
19.02
10.91
3.74
-1.47
-3.88
-3.12
0.61
6.41
12.72
17.50
18.72
15.05
6.39
-5.92
-19.53
-31.96
-41.44
-47.22
-49.51
-48.87
-45.74
-40.36
-32.83
-23.51
-13.19
-3.02
5.64
11.58
13.94
12.56
8.08
2.06
-3.31
-5.81
-3.95
2.25
11.19
20.07
26.03
27.14
23.02
14.79
4.44
-5.97
-14.85
-21.38
-25.41
-27.26
-27.51
-26.84
-25.97
-25.52
-25.88
-26.99
-28.29
-28.72
-26.97
-21.98
-13.30
-1.52
11.71
24.10
33.27
37.63
36.82
31.89
24.83
17.88
12.85
10.64
11.09
13.12
15.12
15.36
12.79
7.46
0.79
-4.89
-7.33
-5.53
-0.41
5.48
9.17
8.73
4.17
-2.50
-8.34
-10.92
-9.22
-4.02
2.87
9.43
14.31
17.10
18.14
18.07
17.33
16.03
13.98
10.82
6.20
-0.15
-8.31
-18.06
-28.75
-39.21
-47.98
-53.69
-55.67
-54.19
-50.43
-45.79
-41.32
-37.45
-34.12
-31.26
-29.18
-28.40
-29.04
-30.43
-31.07
-29.23
-24.02
-16.02
-7.13
0.27
4.53
5.50
4.38
2.85
1.96
1.60
0.69
-2.04
-7.32
-14.88
-23.81
-32.94
-41.36
-48.42
-53.44
-55.67
-54.31
-48.97
-39.98
-28.47
-16.01
-3.98
6.84
16.34
24.92
33.00
40.58
47.21
51.90
53.48
50.86
43.42
31.23
15.07
-3.57
-22.75
-40.30
-54.21
-62.94
-65.72
-62.70
-54.99
-44.45
-33.44
-24.47
-19.80
-21.08
-28.73
-41.54
-56.75
-70.79
-80.48
-84.29
-82.75
-77.86
-71.78
-65.47
-58.38
-49.18
-37.03
-22.55
-7.74
5.09
14.70
21.65
28.00
36.13
47.37
61.30
75.97
88.87
98.04
102.84
103.78
101.96
98.48
94.19
90.04
87.58
89.16
97.17
112.53
133.20
154.15
169.16
173.86
168.05
156.10
144.53
138.60
139.60
144.67
149.01
148.78
143.05
133.38
121.94
109.61
95.49
78.13
57.18
34.29
12.52
-5.03
-16.54
-21.81
-22.32
-20.54
-19.51
-22.33
-31.28
-46.89
-67.24
-88.14
-104.36
-111.47
-107.53
-93.86
-74.68
-55.76
-42.94
-40.89
-52.16
-76.55
-110.79
-148.82
-182.99
-206.10
-213.60
-205.05
-184.11
-156.90
-129.91
-107.92
-92.69
-83.03
-75.92
-68.12
-57.55
-43.86
-28.02
-11.85
2.80
14.70
23.86
31.38
39.21
49.49
63.81
82.95
106.38
132.15
157.38
178.95
193.89
199.82
195.48
181.11
159.38
134.03
108.65
85.97
67.83
54.77
45.76
38.46
29.66
17.54
0.14
-25.51
-62.54
-111.93
-171.58
-236.03
-296.83
-344.30
-367.57
-360.82
-326.54
-274.37
-215.43
-158.72
-108.86
-65.50
-25.00
20.74
77.82
146.18
219.95
291.29
351.83
394.39
415.44
396.35
334.18
249.81
173.34
120.35
88.60
67.94
47.15
22.41
-5.58
-32.43
-57.53
-84.32
-119.78
-160.62
-199.05
-228.63
-247.87
-259.29
-262.82
-256.94
-240.37
-212.83
-174.31
-127.57
-78.47
-34.13
-0.48
21.66
34.84
42.31
46.19
47.71
46.52
41.97
34.68
26.72
21.44
20.99
24.83
30.20
34.26
34.76
31.27
25.13
18.72
14.45
13.49
15.22
17.84
19.51
18.92
15.89
11.27
6.59
3.44
2.97
5.58
10.63
16.50
20.80
21.34
17.03
8.70
-1.30
-9.89
-14.52
-14.15
-9.41
-2.10
5.85
13.20
19.65
25.44
30.85
35.74
39.38
40.82
39.24
34.27
26.16
15.88
4.69
-6.28
-16.21
-24.56
-30.74
-33.87
-32.95
-27.30
-17.19
-4.19
9.23
20.59
28.51
33.40
37.06
41.56
47.99
55.75
62.76
66.64
65.88
60.63
52.63
44.04
36.37
29.85
23.52
16.07
7.53
-1.12
-8.17
-11.94
-11.85
-8.80
-4.90
-2.44
-2.82
-6.03
-10.95
-16.11
-20.45
-23.89
-27.17
-31.26
-36.75
-43.50
-50.48
-56.24
-59.19
-58.14
-52.76
-43.70
-32.42
-20.70
-9.98
-0.98
6.36
12.56
18.06
22.90
26.66
28.74
28.66
26.38
22.39
17.40
12.28
7.74
4.19
1.77
0.38
-0.15
0.05
0.85
2.08
3.47
4.63
5.17
4.83
3.53
1.33
-1.64
-5.08
-8.39
-10.69
-10.96
-8.58
-3.74
2.42
8.19
11.99
13.07
11.75
9.01
5.89
2.97
0.25
-2.63
-6.08
-10.52
-16.48
-24.71
-35.88
-50.02
-65.89
-81.06
-92.61
-98.34
-97.72
-92.09
-83.85
-75.27
-67.66
-61.17
-55.46
-50.31
-46.00
-42.99
-41.24
-39.78
-36.96
-31.12
-21.54
-8.91
4.96
17.83
27.99
34.86
38.94
41.48
43.72
46.54
50.10
54.07
57.87
61.05
63.50
65.52
67.71
70.60
74.32
78.29
81.27
81.75
78.65
71.92
62.73
53.08
44.92
39.22
35.69
33.21
30.69
27.75
24.96
23.23
23.08
24.24
25.91
27.40
28.80
30.94
34.91
41.22
49.47
58.48
66.80
73.25
77.08
77.84
75.05
68.22
56.96
41.17
21.30
-1.62
-26.03
-49.98
-71.46
-88.68
-100.35
-105.87
-105.42
-99.87
-90.78
-80.15
-70.10
-62.23
-57.10
-54.08
-51.66
-48.44
-43.95
-39.05
-35.54
-35.18
-38.75
-45.77
-54.85
-64.42
-73.37
-81.07
-87.17
-91.16
-92.31
-89.86
-83.53
-73.86
-62.22
-50.55
-40.66
-33.61
-29.24
-26.27
-22.98
-18.09
-11.43
-4.01
2.61
7.33
10.16
12.16
14.73
18.74
24.11
30.00
35.49
40.05
43.61
46.16
47.42
46.93
44.51
40.68
36.60
33.43
31.47
29.89
27.05
21.52
12.98
2.45
-8.09
-16.66
-21.92
-23.41
-21.42
-16.67
-10.02
-2.47
4.96
11.34
15.97
18.41
18.48
16.27
12.18
7.03
2.06
-1.46
-2.76
-1.94
-0.03
1.48
1.34
-0.87
-4.76
-9.53
-14.68
-20.29
-26.82
-34.47
-42.69
-50.13
-55.24
-57.12
-56.21
-54.28
-53.56
-55.65
-60.72
-67.43
-73.83
-78.27
-79.95
-78.47
-73.27
-63.36
-48.06
-28.26
-7.12
10.75
21.37
23.93
21.85
21.40
28.23
43.68
63.06
77.07
76.06
54.69
14.58
-36.10
-86.03
-125.11
-147.59
-152.71
-143.34
-123.36
-95.40
-60.30
-17.73
32.25
87.70
144.16
195.10
233.37
252.99
250.89
227.87
188.63
140.58
92.08
50.29
19.65
1.36
-6.18
-6.13
-1.97
3.38
7.73
9.41
7.24
0.80
-8.87
-19.00
-25.78
-25.85
-18.06
-4.43
10.49
21.69
26.18
24.18
18.76
13.89
12.18
13.64
15.97
16.21
12.46
4.97
-4.09
-11.94
-16.59
-17.60
-16.05
-13.47
-10.82
-7.88
-3.63
2.80
11.35
20.85
29.65
36.73
42.38
48.15
55.93
66.75
79.94
93.15
103.30
107.74
105.33
96.87
84.76
72.09
61.62
54.95
52.18
52.10
52.76
52.18
48.94
42.53
33.26
22.16
10.55
-0.22
-9.01
-15.08
-18.24
-18.84
-17.64
-15.51
-13.14
-10.81
-8.55
-6.28
-4.03
-1.98
-0.19
1.65
4.46
9.53
17.93
29.77
43.70
56.95
66.12
68.25
62.02
48.20
29.52
9.75
-7.73
-21.00
-30.19
-36.92
-43.09
-49.65
-55.95
-60.18
-60.66
-57.33
-52.26
-49.02
-51.00
-59.82
-74.56
-92.19
-108.97
-121.84
-129.38
-131.72
-129.87
-124.93
-117.51
-107.67
-95.33
-80.96
-66.19
-53.82
-47.06
-48.27
-57.51
-72.02
-86.97
-97.46
-100.90
-98.20
-93.28
-90.96
-94.36
-103.55
-116.07
-129.15
-141.89
-155.83
-173.49
-195.69
-219.57
-238.71
-245.48
-234.26
-204.07
-159.13
-107.20
-56.71
-14.29
16.45
34.89
42.42
41.58
35.43
27.28
20.43
18.06
22.89
36.82
60.32
91.78
127.50
162.15
189.79
205.28
205.18
187.80
152.80
100.92
34.40
-42.11
-120.96
-192.18
-245.93
-275.69
-280.56
-265.26
-237.97
-206.93
-177.65
-152.19
-130.14
-110.32
-92.14
-75.58
-60.40
-45.33
-28.31
-7.22
18.91
49.35
81.91
113.88
143.27
169.66
194.44
220.37
250.70
287.91
332.66
382.94
434.14
479.97
514.02
531.61
531.14
514.42
485.85
450.94
414.71
380.62
350.41
324.43
302.33
283.36
266.75
251.64
237.29
223.27
209.68
197.15
186.61
178.89
174.28
172.45
172.67
174.22
176.74
180.20
184.52
188.94
191.71
190.15
181.45
163.63
136.44
101.52
61.65
19.68
-22.63
-65.14
-108.93
-155.41
-205.61
-259.87
-317.77
-377.93
-437.26
-490.39
-529.84
-548.08
-540.73
-509.30
-461.63
-409.06
-361.62
-323.85
-293.75
-265.62
-234.66
-200.67
-168.22
-143.49
-129.88
-125.43
-123.86
-118.21
-104.93
-85.58
-65.42
-49.71
-40.28
-34.59
-27.50
-14.67
4.67
27.04
46.66
58.33
59.83
52.44
39.67
25.29
11.86
0.45
-8.82
-16.13
-21.84
-26.87
-32.96
-42.48
-57.33
-77.69
-101.20
-123.46
-139.56
-146.14
-142.59
-130.87
-113.94
-94.02
-71.78
-47.25
-21.59
1.71
17.40
21.12
12.35
-4.30
-20.49
-28.07
-23.03
-7.48
11.69
26.42
31.39
26.15
14.63
2.68
-4.72
-5.16
0.98
11.48
23.58
34.91
43.75
48.86
49.49
45.46
37.55
27.66
18.54
13.06
13.18
19.34
30.37
44.16
58.46
71.62
82.77
91.56
97.78
101.14
101.50
99.24
95.51
92.05
90.47
91.44
94.36
97.78
100.32
101.62
102.54
104.24
107.10
109.83
109.88
104.73
93.41
77.23
59.31
43.09
30.78
22.71
17.64
13.72
9.50
4.35
-1.77
-8.73
-16.62
-25.92
-37.36
-51.52
-68.35
-86.68
-104.15
-117.64
-124.30
-122.72
-113.82
-100.76
-87.96
-79.39
-77.07
-80.43
-86.75
-92.57
-95.02
-92.87
-86.54
-77.51
-67.39
-57.32
-47.82
-39.07
-31.39
-25.45
-22.03
-21.54
-23.65
-27.19
-30.65
-32.87
-33.73
-34.14
-35.47
-38.67
-43.63
-49.01
-52.72
-52.64
-47.26
-35.96
-19.00
2.47
26.60
51.16
74.00
93.58
109.19
120.79
128.50
132.22
131.57
126.18
116.05
101.55
83.17
61.27
36.31
9.41
-17.09
-39.79
-55.29
-61.68
-59.65
-52.37
-44.44
-40.19
-42.39
-51.78
-67.23
-86.28
-105.68
-121.80
-131.15
-130.99
-120.19
-99.80
-73.07
-44.77
-19.88
-2.11
7.15
9.03
6.59
3.62
3.41
8.09
18.56
34.73
55.87
80.57
106.55
130.68
149.54
160.27
161.44
153.44
138.12
118.03
95.75
73.47
52.97
35.61
22.19
12.67
6.18
1.44
-2.62
-6.44
-9.93
-13.10
-16.50
-21.21
-28.15
-37.05
-46.00
-51.77
-50.83
-40.56
-20.13
9.30
44.67
81.34
113.58
135.35
141.73
130.50
103.27
65.41
24.57
-11.67
-37.88
-52.01
-55.61
-52.91
-49.38
-50.09
-58.18
-73.99
-95.12
-117.35
-136.31
-148.81
-153.23
-149.22
-136.97
-116.99
-90.62
-60.81
-32.09
-9.47
3.47
6.05
0.63
-8.99
-19.68
-30.31
-41.45
-53.66
-65.84
-74.86
-77.07
-70.82
-58.18
-44.82
-37.64
-41.60
-57.31
-80.78
-105.34
-124.69
-135.29
-137.02
-131.92
-122.16
-108.52
-90.20
-66.03
-36.00
-1.96
32.85
65.46
94.77
122.42
151.83
186.09
225.81
268.01
306.92
336.31
352.17
354.52
347.22
335.84
324.86
315.37
304.81
288.57
262.43
224.58
176.05
119.74
58.71
-4.80
-69.14
-131.98
-189.27
-235.30
-264.18
-272.22
-259.73
-231.05
-192.69
-150.70
-108.52
-66.68
-24.16
19.38
62.26
101.13
132.51
154.36
166.67
170.64
167.27
156.86
139.64
116.91
91.60
67.67
48.53
35.72
28.76
26.30
27.49
32.48
41.80
55.17
70.75
85.60
96.77
102.41
102.03
96.00
84.72
68.46
47.86
24.74
2.42
-14.95
-23.60
-21.43
-8.72
11.92
36.27
59.59
77.60
87.14
86.82
77.08
59.83
37.91
14.06
-10.05
-34.49
-60.74
-90.55
-124.58
-161.46
-197.72
-228.71
-249.76
-257.07
-248.19
-222.33
-180.60
-126.29
-64.87
-3.07
52.62
97.72
130.81
153.35
168.46
179.24
187.69
194.50
199.69
203.23
205.28
206.17
206.33
206.12
206.27
208.18
214.04
226.21
246.11
273.00
303.25
330.75
348.65
351.56
337.49
308.43
269.39
226.28
183.77
144.14
107.42
72.61
38.80
5.90
-25.56
-55.07
-82.66
-108.97
-134.86
-161.03
-187.70
-214.96
-243.18
-273.31
-306.32
-342.08
-378.33
-410.56
-433.32
-442.29
-436.16
-416.92
-388.82
-356.36
-323.03
-291.29
-263.35
-241.86
-229.40
-227.21
-233.85
-245.17
-255.76
-261.10
-259.06
-249.95
-235.26
-216.42
-194.38
-170.07
-145.39
-123.50
-108.13
-102.14
-106.26
-118.71
-135.82
-153.49
-168.44
-178.84
-184.16
-184.53
-180.14
-171.12
-157.83
-141.30
-123.28
-105.81
-90.50
-77.85
-67.14
-56.88
-45.66
-32.89
-19.10
-5.63
5.86
14.07
18.60
20.27
20.96
23.03
28.34
37.33
48.49
58.67
64.00
61.22
48.65
26.68
-2.20
-34.00
-63.91
-87.16
-99.99
-100.16
-87.14
-61.65
-25.35
19.14
67.71
114.38
152.04
174.17
177.18
161.89
133.32
98.83
65.56
38.54
20.35
12.03
13.96
26.47
49.45
81.94
122.39
169.48
223.08
283.96
352.02
424.12
493.10
548.98
582.28
587.89
567.24
527.96
480.82
435.86
399.32
372.67
353.57
337.80
321.36
301.80
278.79
253.66
228.62
205.33
183.87
162.41
137.83
107.33
69.67
25.94
-20.72
-65.92
-105.03
-134.08
-150.53
-153.75
-145.37
-129.13
-109.92
-92.73
-81.63
-79.28
-86.99
-105.19
-133.71
-171.57
-216.41
-263.96
-308.09
-341.73
-358.64
-355.28
-332.23
-294.58
-250.42
-208.30
-174.49
-151.19
-136.81
-127.86
-121.42
-116.74
-115.21
-118.85
-128.41
-142.22
-156.39
-166.21
-168.00
-160.64
-145.89
-127.66
-110.49
-97.96
-91.55
-90.42
-92.12
-93.87
-93.90
-91.93
-88.76
-85.06
-80.23
-72.31
-58.90
-38.76
-12.86
15.92
44.42
71.10
96.91
124.61
156.65
193.21
231.14
264.83
288.22
296.86
289.25
266.56
231.45
186.98
136.41
83.94
35.20
-3.29
-26.31
-32.33
-25.00
-12.23
-3.35
-5.10
-19.13
-42.08
-67.91
-91.29
-110.01
-125.40
-140.91
-160.31
-186.47
-220.67
-262.40
-309.05
-355.88
-396.70
-425.67
-439.05
-436.35
-420.13
-394.67
-364.08
-331.03
-296.58
-260.54
-222.15
-180.90
-137.44
-94.58
-57.48
-32.38
-24.02
-32.74
-53.03
-74.96
-87.99
-85.09
-65.14
-32.35
6.21
43.53
74.38
95.72
106.43
107.34
101.63
94.78
93.39
102.67
123.93
153.54
184.39
208.68
221.33
222.08
215.28
207.89
206.23
213.25
227.21
242.12
249.99
243.70
219.01
175.17
114.39
40.75
-40.12
-121.02
-193.23
-247.54
-276.19
-275.36
-247.02
-198.71
-141.36
-85.72
-39.19
-4.30
20.68
39.86
57.66
77.25
100.35
127.78
160.32
199.00
244.55
296.26
350.56
400.87
439.01
457.86
454.04
429.40
390.13
344.15
298.16
255.37
215.63
177.16
138.87
101.53
67.47
38.94
16.68
-0.70
-15.82
-31.13
-47.72
-64.77
-80.30
-92.18
-99.13
-101.19
-99.53
-95.82
-91.50
-87.38
-83.51
-79.64
-75.66
-72.04
-69.83
-70.25
-74.05
-80.99
-89.76
-98.30
-104.59
-107.40
-106.79
-104.08
-101.35
-100.65
-103.10
-108.51
-115.42
-121.73
-125.46
-125.38
-121.26
-113.69
-103.79
-92.86
-82.20
-72.88
-65.60
-60.57
-57.53
-55.83
-54.66
-53.25
-50.94
-47.26
-42.00
-35.34
-27.95
-20.85
-15.13
-11.57
-10.42
-11.26
-13.46
-16.31
-19.36
-22.31
-24.95
-27.02
-28.18
-28.17
-26.91
-24.64
-21.85
-19.13
-17.07
-16.05
-16.27
-17.72
-20.28
-23.63
-27.32
-30.77
-33.39
-34.71
-34.40
-32.19
-27.69
-20.45
-10.12
3.00
17.57
31.29
41.50
46.36
45.72
41.43
36.59
34.22
35.92
41.40
49.27
58.41
69.04
82.40
99.28
118.56
136.91
150.03
155.18
153.05
147.89
145.53
150.57
164.29
184.69
208.27
232.10
254.78
275.81
294.04
306.82
310.58
302.64
282.85
253.93
220.35
186.21
153.74
123.07
93.26
63.90
35.84
10.77
-10.01
-26.32
-38.78
-47.66
-51.35
-45.84
-25.95
12.20
68.57
138.03
211.33
277.72
328.18
357.74
366.05
356.31
333.37
301.98
265.81
227.45
188.88
151.86
118.05
88.73
64.54
45.30
30.25
18.19
7.71
-2.77
-14.61
-28.35
-43.32
-57.37
-67.60
-71.63
-68.88
-61.05
-51.57
-44.14
-41.29
-43.85
-51.37
-63.07
-78.51
-97.26
-118.09
-138.60
-155.58
-166.37
-170.15
-168.47
-164.38
-161.06
-160.63
-163.70
-169.90
-178.57
-189.26
-201.54
-214.42
-226.22
-235.00
-239.32
-238.91
-234.55
-227.36
-217.92
-205.83
-190.12
-170.28
-147.18
-123.39
-102.46
-87.51
-79.68
-77.51
-77.57
-76.04
-70.65
-61.75
-52.28
-46.31
-47.31
-56.51
-72.37
-91.23
-108.85
-122.19
-130.52
-135.42
-139.92
-147.08
-158.89
-175.77
-196.74
-219.63
-241.37
-258.11
-265.52
-259.52
-237.64
-200.40
-151.99
-99.54
-51.09
-13.30
10.49
20.66
20.38
14.24
6.77
1.47
0.15
2.71
7.26
10.73
10.09
3.91
-6.32
-16.09
-19.22
-10.41
12.04
44.90
80.90
111.81
132.04
141.58
146.08
154.41
174.01
206.86
247.82
286.18
309.84
310.25
285.87
242.32
189.53
137.44
91.71
52.11
13.96
-27.93
-75.34
-124.53
-167.73
-197.19
-209.78
-209.24
-204.51
-204.77
-214.08
-228.69
-238.60
-232.72
-204.50
-154.67
-89.87
-18.71
52.10
119.06
179.93
230.94
265.92
278.76
267.59
237.75
200.74
169.17
150.60
143.93
140.72
130.38
106.15
68.54
24.45
-16.75
-47.53
-64.53
-68.49
-62.39
-49.71
-33.48
-16.19
-0.11
12.87
21.67
26.38
28.09
28.55
29.02
29.72
29.88
28.58
26.11
24.77
28.37
40.52
62.14
89.86
116.22
131.91
128.83
103.10
56.66
-2.72
-63.12
-111.26
-136.27
-132.90
-103.46
-57.57
-9.38
26.97
42.00
33.95
8.77
-22.80
-49.76
-64.85
-66.58
-58.61
-47.17
-38.39
-36.52
-43.76
-60.92
-88.17
-124.72
-167.67
-211.10
-246.77
-266.61
-265.88
-245.23
-210.71
-171.56
-137.43
-115.65
-109.81
-119.48
-140.83
-167.49
-192.05
-207.83
-210.45
-198.82
-174.78
-141.62
-102.44
-59.18
-12.92
34.99
81.69
123.03
154.62
173.54
179.35
174.21
161.99
146.83
131.98
119.34
109.61
102.77
98.53
96.55
96.47
97.84
100.03
102.27
103.53
102.57
98.10
89.14
75.53
58.02
38.09
17.24
-3.65
-24.77
-46.88
-70.34
-94.05
-115.06
-129.36
-133.60
-126.84
-111.28
-91.60
-73.05
-59.40
-51.77
-48.79
-47.72
-45.86
-41.53
-34.25
-24.42
-12.93
-0.91
10.23
18.95
23.95
24.68
21.74
16.83
12.54
11.68
16.66
28.98
48.79
74.59
103.68
132.52
157.69
176.47
187.03
188.08
178.70
158.58
128.98
93.51
58.13
29.41
11.91
5.97
7.38
9.47
6.29
-4.76
-22.48
-43.55
-65.04
-86.32
-108.75
-133.87
-161.39
-188.32
-210.03
-222.78
-225.99
-222.65
-217.74
-215.46
-216.54
-217.71
-213.24
-197.88
-169.59
-130.66
-86.63
-43.91
-7.33
21.22
42.48
58.61
71.75
83.13
92.96
100.76
106.16
109.43
111.70
114.74
120.31
129.55
143.02
161.36
185.44
216.13
253.06
293.31
331.12
359.18
371.29
364.78
341.78
308.21
271.36
237.10
208.46
185.59
166.77
149.54
130.97
107.31
73.72
25.25
-41.16
-124.04
-216.04
-304.88
-376.61
-420.62
-433.34
-419.42
-389.32
-354.80
-324.31
-300.46
-280.52
-258.67
-229.54
-190.89
-145.01
-98.66
-61.59
-44.01
-53.46
-91.53
-152.12
-222.24
-285.36
-326.44
-336.63
-315.20
-268.23
-205.23
-135.26
-64.43
4.38
70.62
134.98
198.38
261.98
326.75
392.65
457.39
515.90
561.32
587.39
591.04
572.78
536.99
490.52
440.71
393.46
352.11
317.27
287.41
259.97
230.78
196.37
155.69
110.62
64.33
18.69
-27.10
-75.50
-128.09
-185.45
-243.87
-295.21
-329.40
-338.73
-321.37
-281.76
-228.23
-170.19
-120.20
-90.87
-92.30
-128.96
-198.03
-289.42
-387.76
-476.17
-526.00
-518.90
-456.59
-361.52
-262.45
-178.20
-113.15
-62.88
-24.27
8.10
33.62
50.42
59.51
66.16
77.46
98.58
129.66
167.20
206.41
240.82
266.23
282.52
293.88
306.58
326.15
355.49
394.22
438.73
480.44
508.79
514.62
493.54
447.16
382.15
307.61
232.07
161.40
96.77
36.43
-22.04
-80.11
-137.93
-194.72
-249.12
-298.93
-341.02
-372.31
-390.59
-395.27
-387.23
-368.35
-340.86
-307.22
-270.53
-234.73
-204.13
-181.82
-168.23
-161.07
-157.19
-154.97
-155.64
-162.29
-177.11
-198.89
-222.42
-240.55
-247.36
-240.69
-222.14
-195.15
-162.65
-126.17
-86.93
-47.36
-11.77
15.11
30.68
36.69
39.17
46.17
64.42
96.66
140.76
190.69
238.44
276.34
298.95
304.33
294.47
274.60
251.54
231.55
218.67
214.22
217.76
228.39
245.57
268.58
295.51
322.61
345.09
359.06
363.52
360.96
355.91
352.52
352.27
353.05
349.98
337.80
313.10
275.82
229.45
179.36
130.32
84.49
40.99
-2.82
-49.28
-98.52
-147.60
-191.23
-223.19
-237.74
-230.74
-200.51
-148.80
-81.56
-8.64
57.95
107.33
132.90
134.14
115.81
85.05
48.01
7.67
-36.11
-84.83
-138.86
-195.84
-250.15
-294.15
-320.95
-326.77
-312.74
-284.87
-252.22
-223.88
-205.87
-199.73
-202.92
-210.89
-219.41
-226.06
-230.18
-232.12
-232.15
-230.40
-227.31
-224.25
-223.75
-229.05
-243.30
-268.15
-302.49
-341.80
-378.53
-404.09
-411.53
-398.18
-366.61
-323.38
-276.12
-230.13
-186.57
-143.31
-97.87
-50.86
-7.52
23.66
34.59
21.87
-10.74
-52.98
-91.30
-113.57
-113.10
-90.87
-54.53
-15.37
15.86
32.43
33.22
22.09
5.53
-9.92
-19.49
-20.59
-12.28
5.45
31.92
65.38
102.69
139.33
170.26
191.30
200.57
199.28
191.66
183.73
181.34
188.18
204.23
225.71
246.49
260.35
263.42
255.25
238.52
217.30
195.12
173.62
152.52
130.54
106.67
80.73
53.21
24.55
-5.38
-37.00
-69.96
-101.97
-128.54
-144.06
-143.83
-126.33
-94.25
-53.90
-12.91
22.40
48.98
67.20
79.73
89.79
99.45
108.96
116.93
121.33
120.41
113.27
100.01
81.56
59.70
37.04
16.97
3.04
-2.01
2.74
16.03
35.06
56.71
78.80
100.39
121.03
139.48
152.49
154.97
141.71
110.13
62.75
7.55
-44.03
-81.10
-97.38
-93.54
-76.21
-54.64
-36.53
-25.40
-20.73
-20.14
-22.17
-27.35
-37.38
-52.90
-71.81
-89.20
-99.21
-97.67
-83.93
-61.19
-34.98
-11.00
6.96
17.88
23.00
24.69
25.07
25.19
25.02
23.97
21.70
18.63
16.09
15.89
19.60
27.81
39.65
52.79
64.14
70.79
71.08
65.10
54.65
42.49
31.41
23.33
18.92
17.61
18.11
19.00
19.22
18.35
16.54
14.24
11.96
10.00
8.34
6.68
4.57
1.63
-2.28
-6.90
-11.55
-15.33
-17.41
-17.25
-14.79
-10.33
-4.36
2.66
10.37
18.39
26.26
33.36
39.01
42.67
44.14
43.65
41.74
39.13
36.52
34.42
33.00
32.03
31.02
29.30
26.36
22.09
16.84
11.33
6.37
2.56
0.09
-1.19
-1.60
-1.31
-0.32
1.50
4.15
7.34
10.52
13.08
14.56
14.85
14.18
12.90
11.33
9.59
7.59
5.13
1.95
-2.15
-7.32
-13.51
-20.49
-27.78
-34.75
-40.72
-45.14
-47.69
-48.33
-47.22
-44.65
-40.93
-36.27
-30.88
-24.96
-18.77
-12.61
-6.73
-1.26
3.89
8.97
14.25
19.79
25.45
30.98
36.18
41.03
45.62
50.00
53.99
57.19
59.26
60.14
60.27
60.30
60.79
61.75
62.54
62.16
59.77
55.15
48.90
42.07
35.68
30.23
25.62
21.36
16.95
12.23
7.44
2.97
-0.85
-4.02
-6.85
-9.74
-13.07
-16.96
-21.26
-25.63
-29.74
-33.37
-36.47
-39.15
-41.53
-43.61
-45.19
-45.87
-45.08
-42.39
-37.61
-31.05
-23.43
-15.72
-8.86
-3.47
0.25
2.49
3.61
4.02
4.01
3.86
3.85
4.31
5.57
7.81
11.03
14.97
19.22
23.33
26.87
29.51
31.01
31.30
30.55
29.13
27.59
26.56
26.47
27.49
29.51
32.15
34.93
37.37
39.15
40.07
40.11
39.34
37.99
36.38
35.05
34.57
35.37
37.46
40.34
43.03
44.38
43.34
39.31
32.27
22.71
11.58
0.10
-10.48
-19.21
-25.81
-30.87
-35.66
-41.67
-49.80
-59.85
-70.43
-79.47
-84.96
-85.76
-81.84
-74.22
-64.43
-53.97
-44.01
-35.25
-28.10
-22.76
-19.34
-17.81
-17.83
-18.77
-19.83
-20.21
-19.41
-17.31
-14.09
-10.11
-5.66
-0.91
3.97
8.80
13.37
17.49
21.14
24.45
27.58
30.55
33.22
35.31
36.59
37.02
36.78
36.11
35.20
34.04
32.48
30.29
27.34
23.63
19.19
14.07
8.23
1.77
-5.09
-11.82
-17.81
-22.58
-26.02
-28.60
-31.03
-33.90
-37.20
-40.23
-41.99
-41.78
-39.71
-36.61
-33.47
-30.74
-28.04
-24.47
-19.34
-12.73
-5.48
1.42
7.66
13.85
21.19
30.51
41.60
53.16
63.35
70.82
75.28
77.44
78.53
79.48
80.59
81.53
81.77
80.97
79.23
77.06
75.10
73.84
73.39
73.57
74.07
74.59
75.01
75.27
75.18
74.23
71.55
65.94
56.20
41.35
21.16
-3.62
-31.11
-58.53
-82.77
-101.15
-112.13
-115.57
-112.64
-105.37
-96.01
-86.58
-78.69
-73.32
-70.96
-71.49
-74.16
-77.75
-80.82
-82.04
-80.60
-76.32
-69.64
-61.43
-52.63
-43.94
-35.69
-27.86
-20.41
-13.58
-7.97
-4.36
-3.30
-4.53
-6.95
-8.82
-8.43
-4.71
2.40
11.97
22.60
32.92
42.13
50.08
57.11
63.66
69.85
75.37
79.53
81.70
81.63
79.70
76.93
74.54
73.51
74.15
76.02
78.27
80.10
81.05
80.96
79.53
75.95
68.96
57.24
40.26
18.82
-4.67
-26.71
-43.60
-52.27
-50.70
-38.00
-14.48
18.23
56.88
96.87
133.14
161.77
181.29
193.20
201.10
208.73
217.97
227.74
234.66
234.78
225.68
207.72
183.95
158.67
135.54
116.26
100.11
84.54
66.66
44.67
18.88
-8.46
-34.05
-55.04
-70.08
-79.70
-85.74
-90.41
-95.32
-101.12
-107.43
-113.03
-116.14
-114.54
-106.27
-90.68
-69.41
-46.75
-28.95
-22.33
-31.23
-56.40
-94.84
-140.70
-186.91
-226.82
-255.41
-270.13
-271.30
-261.84
-246.31
-229.05
-212.32
-195.29
-174.67
-146.79
-110.20
-67.12
-22.90
16.29
46.18
65.98
77.98
85.70
91.73
96.75
99.95
100.28
97.57
92.75
87.09
81.46
75.85
69.65
62.13
52.74
41.09
26.70
9.15
-11.61
-34.73
-58.38
-80.32
-98.84
-113.40
-124.70
-133.84
-141.38
-146.84
-148.88
-146.27
-138.73
-127.42
-114.50
-102.37
-92.77
-86.36
-82.68
-80.54
-78.41
-74.93
-69.30
-61.44
-51.82
-41.25
-30.70
-21.33
-14.45
-11.31
-12.63
-18.06
-26.03
-34.52
-42.24
-49.51
-58.28
-70.95
-88.90
-111.68
-137.43
-164.24
-191.06
-217.37
-241.67
-260.20
-266.94
-255.73
-223.19
-170.76
-104.81
-34.76
29.73
81.20
115.63
132.70
135.73
131.07
126.60
128.96
140.46
157.09
169.41
166.38
141.05
94.65
37.02
-17.17
-54.44
-67.56
-57.13
-29.42
7.82
49.14
92.66
138.95
188.52
240.01
289.88
333.70
368.09
392.10
407.34
416.79
422.93
426.39
425.69
418.14
401.68
376.36
344.77
311.27
280.21
254.36
234.18
218.25
204.43
190.97
177.03
162.52
147.35
130.98
112.18
89.44
61.75
29.32
-5.89
-40.11
-68.64
-87.27
-93.87
-89.44
-77.93
-64.63
-53.88
-47.15
-42.47
-35.79
-23.42
-4.14
19.91
44.31
64.50
77.89
84.79
87.77
89.90
93.06
97.09
100.23
100.31
96.04
87.56
76.16
63.48
50.54
37.47
23.76
8.94
-6.90
-22.90
-37.92
-51.13
-62.51
-72.88
-83.48
-95.35
-108.88
-123.69
-139.05
-154.31
-169.37
-184.73
-201.21
-219.54
-239.97
-262.13
-285.22
-308.30
-330.68
-352.23
-373.62
-396.37
-422.51
-453.55
-489.13
-526.02
-558.29
-578.96
-582.50
-567.01
-534.90
-491.70
-443.77
-396.19
-351.90
-312.28
-278.27
-251.06
-231.78
-220.33
-214.84
-211.91
-208.06
-201.31
-191.81
-181.23
-171.41
-162.88
-154.38
-143.56
-128.30
-107.96
-83.81
-58.23
-33.50
-10.74
10.30
30.52
50.36
69.14
85.06
95.98
100.45
98.04
89.05
73.68
51.47
21.49
-16.42
-60.26
-105.21
-144.28
-170.30
-178.29
-167.01
-138.97
-99.12
-52.91
-4.90
41.64
84.37
121.34
150.97
172.63
187.33
197.91
208.58
223.78
246.89
278.98
317.61
356.60
387.07
400.02
390.00
357.74
310.46
259.02
213.47
179.00
154.84
136.26
118.33
99.02
80.09
65.26
57.55
57.36
62.28
68.24
71.06
67.50
55.88
36.62
12.34
-12.48
-33.10
-46.34
-52.22
-53.99
-56.26
-62.09
-71.01
-78.97
-80.52
-71.93
-53.04
-26.91
2.37
32.42
63.89
99.63
142.08
190.61
240.20
282.35
307.99
310.77
289.41
248.10
194.88
138.84
87.57
45.60
14.61
-5.49
-15.26
-14.91
-4.43
16.19
46.47
85.25
130.33
178.11
223.20
259.01
279.37
280.51
262.78
230.65
190.90
150.01
111.98
77.79
46.59
17.64
-8.63
-30.60
-46.74
-56.92
-62.97
-67.85
-74.33
-83.64
-95.00
-106.32
-115.23
-120.22
-121.14
-119.09
-115.80
-112.91
-111.38
-111.25
-111.78
-111.82
-110.35
-106.94
-101.99
-96.57
-91.91
-88.85
-87.39
-86.73
-85.78
-83.70
-80.51
-77.01
-74.41
-73.67
-75.09
-78.18
-81.94
-85.31
-87.47
-87.96
-86.56
-83.12
-77.62
-70.21
-61.30
-51.60
-41.97
-33.14
-25.61
-19.44
-14.34
-9.90
-5.69
-1.52
2.57
6.38
9.69
12.38
14.49
16.05
17.04
17.39
17.00
15.84
14.04
11.96
10.01
8.60
7.92
8.01
8.78
10.07
11.72
13.56
15.43
17.12
18.41
19.01
18.70
17.35
15.08
12.22
9.30
6.78
5.04
4.29
4.62
5.94
8.00
10.24
11.88
12.09
10.28
6.46
1.39
-3.65
-7.22
-8.43
-7.31
-4.78
-2.32
-1.27
-2.27
-5.03
-8.40
-10.94
-11.43
-9.43
-5.50
-1.01
2.23
2.65
-0.46
-6.65
-14.30
-21.30
-25.90
-27.59
-27.45
-27.72
-30.72
-37.81
-48.68
-61.51
-73.79
-83.14
-88.03
-88.03
-83.83
-77.42
-72.25
-72.97
-84.07
-107.79
-142.26
-181.11
-215.36
-236.97
-242.19
-232.91
-215.02
-195.01
-176.71
-160.16
-143.08
-123.58
-102.17
-81.76
-65.94
-56.74
-53.49
-53.30
-52.70
-49.28
-42.61
-34.04
-25.84
-20.09
-17.95
-19.39
-23.40
-28.52
-33.45
-37.53
-40.66
-42.77
-43.22
-40.66
-33.51
-21.10
-4.44
13.66
29.51
40.17
44.62
44.23
41.89
40.77
43.03
49.35
59.10
70.93
83.33
94.87
104.31
110.72
113.54
112.83
109.33
104.36
99.42
95.78
93.86
92.99
91.46
87.18
78.56
65.55
50.00
35.19
24.68
20.73
23.44
30.82
39.76
47.35
51.59
51.65
47.40
39.12
27.55
14.15
1.09
-9.26
-15.27
-16.94
-16.02
-15.17
-16.75
-21.68
-29.08
-36.83
-42.59
-44.77
-43.03
-38.19
-31.66
-24.97
-19.19
-14.69
-11.09
-7.40
-2.37
4.90
14.58
25.84
37.09
46.57
52.99
56.11
56.79
56.55
56.86
58.49
61.16
63.81
65.21
64.69
62.38
59.20
56.18
53.89
52.08
49.91
46.56
41.95
37.02
33.30
32.10
33.71
36.97
39.77
40.07
36.96
31.13
24.51
19.26
16.77
17.06
19.04
21.19
22.31
21.89
19.93
16.66
12.21
6.80
0.86
-4.66
-8.48
-9.50
-7.38
-2.77
2.99
8.49
12.84
15.95
18.19
19.93
21.14
21.44
20.44
18.21
15.30
12.49
10.30
8.59
6.66
3.71
-0.58
-5.71
-10.55
-13.82
-14.75
-13.40
-10.62
-7.62
-5.38
-4.32
-4.15
-4.19
-3.70
-2.35
-0.44
1.25
1.66
0.05
-3.70
-8.86
-14.15
-18.25
-20.42
-20.80
-20.27
-20.10
-21.34
-24.51
-29.53
-35.81
-42.47
-48.43
-52.57
-53.84
-51.57
-45.71
-36.96
-26.63
-16.31
-7.38
-0.71
3.43
5.36
5.67
5.07
4.14
3.18
2.12
0.51
-2.24
-6.57
-12.41
-19.00
-25.20
-29.91
-32.78
-34.43
-36.32
-39.99
-46.31
-55.04
-64.99
-74.66
-82.69
-87.91
-89.18
-85.34
-75.94
-62.08
-46.75
-33.92
-26.53
-24.51
-24.13
-19.55
-5.75
18.71
50.89
84.92
115.04
138.04
154.02
165.23
174.13
182.03
189.15
195.57
202.09
210.30
221.83
237.21
255.37
274.00
290.63
303.64
312.97
319.96
326.67
334.97
345.69
358.37
371.34
382.26
388.79
389.23
382.89
370.22
352.40
331.01
307.52
283.02
258.21
233.56
209.49
186.41
164.77
144.75
126.13
108.19
89.85
70.10
48.43
25.20
1.48
-21.42
-42.55
-61.90
-80.45
-99.78
-121.32
-145.62
-172.05
-199.11
-225.05
-248.69
-269.96
-289.87
-310.20
-333.01
-360.47
-394.35
-435.32
-481.71
-528.77
-568.87
-593.37
-595.47
-572.84
-528.50
-469.40
-403.36
-335.96
-269.31
-203.10
-137.04
-72.94
-14.99
31.75
63.65
79.91
82.49
74.67
59.54
39.27
15.18
-11.42
-38.89
-65.46
-89.94
-112.30
-133.72
-156.12
-181.32
-210.46
-243.63
-279.82
-317.14
-353.08
-384.97
-410.41
-427.71
-436.01
-435.30
-426.25
-409.99
-388.01
-362.08
-334.03
-305.51
-277.66
-251.06
-225.82
-201.76
-178.69
-156.41
-134.74
-113.46
-92.38
-71.41
-50.54
-29.84
-9.43
10.73
30.74
50.80
71.03
91.42
111.88
132.27
152.60
173.05
194.05
216.11
239.63
264.77
291.41
319.19
347.72
376.67
405.95
435.81
466.94
500.50
537.84
579.72
625.45
672.35
715.87
750.64
772.00
777.26
766.36
741.41
705.75
662.96
616.16
567.96
520.52
475.61
434.43
397.44
364.21
333.68
304.47
275.40
245.69
215.12
184.11
153.39
123.82
95.95
69.82
44.90
20.27
-4.95
-31.25
-58.35
-85.41
-111.19
-134.65
-155.38
-173.81
-191.07
-208.57
-227.29
-247.40
-268.16
-288.20
-306.16
-321.20
-333.31
-343.31
-352.66
-363.12
-376.42
-393.71
-414.57
-436.27
-453.64
-460.14
-450.05
-420.90
-375.03
-319.21
-262.35
-212.38
-173.67
-146.24
-126.84
-110.98
-94.95
-76.80
-56.30
-34.45
-12.90
6.39
21.47
30.87
34.19
32.58
28.83
26.78
30.21
41.71
61.81
89.02
120.40
152.61
182.84
209.35
231.53
249.48
263.58
273.95
280.21
281.42
276.34
263.83
243.35
215.36
181.28
143.20
103.35
63.51
24.90
-11.67
-45.57
-76.35
-103.91
-128.85
-152.31
-175.65
-199.74
-224.56
-249.11
-271.70
-290.41
-303.45
-309.41
-307.43
-297.55
-281.18
-261.00
-240.40
-222.36
-208.33
-197.86
-189.14
-180.22
-170.05
-158.87
-147.60
-136.99
-126.86
-116.30
-104.56
-91.93
-79.98
-70.84
-65.87
-64.68
-65.00
-63.78
-58.70
-49.29
-37.24
-25.39
-16.44
-11.85
-11.53
-14.37
-19.13
-24.89
-31.28
-38.01
-44.56
-50.20
-54.30
-56.78
-58.39
-60.42
-64.06
-69.66
-76.32
-81.99
-84.17
-80.90
-71.54
-57.17
-40.29
-24.14
-11.71
-5.00
-4.50
-9.30
-17.42
-26.47
-34.30
-39.52
-41.87
-42.29
-42.59
-44.68
-49.78
-57.73
-66.94
-74.95
-79.31
-78.41
-71.94
-60.75
-46.33
-30.30
-13.94
2.06
17.60
33.11
49.13
65.97
83.34
100.25
115.36
127.50
136.23
141.90
145.53
148.20
150.39
151.52
149.83
142.79
127.82
103.28
69.19
27.56
-17.82
-62.22
-100.84
-129.80
-146.67
-150.62
-142.34
-123.73
-97.53
-66.89
-34.93
-4.34
22.96
45.98
64.49
78.88
89.78
97.67
102.59
104.28
102.46
97.43
90.19
82.32
75.33
69.97
65.89
61.93
56.76
49.36
39.24
26.24
10.48
-7.37
-25.59
-41.33
-51.29
-53.01
-46.28
-33.39
-18.32
-4.88
4.82
10.93
15.14
19.23
23.92
28.63
32.30
34.34
35.20
36.12
38.31
42.10
46.61
49.99
50.26
46.30
38.39
28.25
18.43
11.25
7.98
8.63
12.19
17.42
23.39
29.68
36.12
42.39
47.85
51.66
53.34
53.03
51.55
49.90
48.50
46.80
43.23
35.81
22.98
4.50
-18.32
-42.87
-65.99
-84.98
-98.35
-106.02
-108.92
-108.13
-104.13
-96.71
-85.46
-70.64
-53.88
-38.06
-26.38
-20.98
-22.14
-28.14
-36.13
-43.27
-47.31
-46.60
-39.80
-26.03
-5.84
17.85
39.92
54.68
58.70
53.05
43.43
37.89
43.07
61.19
89.22
120.77
149.14
169.98
182.29
187.44
187.43
183.54
176.09
165.06
151.00
135.34
119.86
106.03
93.94
82.27
69.16
53.36
35.29
17.13
1.76
-8.73
-14.21
-16.64
-18.93
-23.36
-30.36
-38.35
-44.51
-46.02
-41.30
-30.29
-14.33
4.55
24.43
43.95
62.54
80.20
97.15
113.53
129.45
144.99
160.19
174.57
186.52
192.89
189.46
172.48
140.72
97.02
47.97
1.80
-34.69
-58.44
-70.37
-73.79
-72.08
-67.22
-60.13
-51.90
-44.79
-41.93
-45.65
-55.74
-68.80
-79.63
-83.72
-79.68
-69.81
-58.83
-51.33
-49.70
-53.40
-59.99
-66.82
-72.55
-77.32
-81.89
-86.49
-90.11
-90.84
-86.86
-77.54
-63.69
-47.17
-29.97
-13.52
1.53
15.09
27.30
38.30
48.11
56.67
63.71
68.81
71.46
71.28
68.26
62.86
55.99
48.81
42.45
37.69
34.74
33.13
31.89
29.91
26.36
21.08
14.54
7.71
1.57
-3.19
-6.20
-7.43
-7.11
-5.70
-4.03
-3.09
-3.57
-5.25
-6.73
-5.84
-0.75
8.81
21.00
32.31
39.00
38.63
30.98
17.94
2.53
-12.35
-24.70
-33.61
-38.95
-41.10
-40.76
-38.93
-36.70
-34.89
-33.60
-32.09
-29.18
-23.95
-16.39
-7.54
0.95
7.62
11.79
13.86
15.01
16.58
19.48
23.90
29.31
34.65
38.80
40.89
40.73
39.05
37.47
38.08
42.73
52.28
66.26
83.01
100.51
117.19
132.55
147.04
161.33
175.45
188.45
198.77
205.14
207.30
206.18
203.15
199.01
193.39
184.76
171.24
151.31
124.25
89.90
48.50
1.10
-49.45
-97.71
-136.27
-157.85
-158.53
-139.84
-108.84
-75.50
-48.87
-33.93
-30.69
-35.52
-43.73
-51.80
-57.95
-61.52
-61.98
-58.39
-49.81
-36.06
-18.36
0.91
18.90
33.23
42.66
47.36
48.54
47.72
46.09
43.99
41.03
36.31
29.16
19.60
8.56
-2.35
-11.40
-17.23
-19.31
-17.97
-14.31
-9.85
-6.25
-4.99
-7.09
-13.04
-22.77
-35.76
-51.16
-68.04
-85.40
-102.31
-117.96
-131.81
-143.60
-153.32
-161.08
-166.76
-169.85
-169.45
-164.46
-153.90
-137.20
-114.28
-85.76
-52.88
-17.44
18.53
53.18
85.06
113.14
136.28
152.68
159.69
154.38
134.74
100.96
56.17
6.01
-42.81
-84.36
-115.01
-134.05
-143.24
-145.76
-144.97
-143.56
-143.22
-144.73
-148.29
-153.70
-160.34
-167.03
-172.16
-174.07
-171.70
-165.10
-155.50
-144.74
-134.41
-125.16
-116.51
-107.16
-95.66
-81.08
-63.63
-44.68
-26.47
-11.59
-2.14
0.99
-1.30
-6.38
-10.44
-9.64
-1.51
13.99
34.36
55.33
72.53
83.24
87.32
86.95
85.39
85.30
87.61
91.61
95.65
98.33
99.11
98.23
96.14
92.88
87.77
79.56
67.12
50.29
30.44
10.41
-6.36
-17.21
-21.31
-19.78
-14.89
-8.75
-2.33
4.57
12.68
22.41
33.39
44.79
55.88
66.37
76.52
86.71
97.20
108.07
119.25
130.47
141.07
149.75
154.72
154.39
147.91
135.47
118.05
96.73
72.19
44.80
15.42
-13.93
-39.92
-59.07
-69.24
-71.05
-67.96
-64.91
-66.22
-73.73
-86.23
-100.41
-112.66
-120.59
-123.67
-122.84
-119.35
-114.02
-106.89
-97.64
-86.05
-72.53
-58.10
-44.06
-31.53
-20.95
-11.92
-3.59
4.79
13.28
21.17
27.31
30.75
31.31
29.81
27.74
26.70
27.59
30.33
33.68
35.68
34.36
28.47
18.23
5.42
-7.08
-16.33
-20.52
-19.75
-16.08
-12.65
-12.52
-17.63
-28.34
-43.65
-61.55
-79.29
-93.59
-100.95
-98.30
-84.15
-59.43
-27.62
6.18
37.08
62.05
80.72
94.77
106.55
117.46
127.23
134.22
136.57
133.58
126.45
118.05
111.84
110.45
114.67
123.58
135.50
149.14
164.26
181.31
200.50
220.98
240.64
256.86
267.58
272.21
271.70
267.93
262.74
256.93
250.06
240.72
227.11
208.03
183.38
154.37
123.16
92.05
62.46
34.45
6.80
-22.26
-54.13
-89.16
-126.58
-165.05
-203.04
-239.63
-274.69
-308.74
-342.83
-378.32
-416.86
-459.99
-508.41
-560.97
-614.04
-661.76
-697.46
-715.75
-714.33
-694.64
-661.04
-618.90
-572.91
-526.08
-479.93
-435.21
-392.63
-352.99
-316.72
-283.51
-252.14
-221.02
-188.85
-155.18
-120.59
-86.47
-54.25
-24.84
1.71
26.23
50.02
74.37
100.27
128.08
157.56
187.69
216.78
242.64
263.08
276.54
282.61
282.14
276.90
268.88
259.72
250.34
241.07
232.00
223.21
214.90
207.22
200.09
193.18
186.03
178.29
169.88
161.03
152.23
143.93
136.44
129.73
123.54
117.48
111.25
104.77
98.24
92.01
86.41
81.52
77.17
73.03
68.82
64.44
59.99
55.76
52.00
48.87
46.36
44.33
42.64
41.12
39.66
38.17
36.58
34.89
33.22
31.81
30.98
31.05
32.26
34.64
37.97
41.92
46.14
50.48
55.05
60.12
66.00
72.77
80.20
87.79
94.94
101.30
106.86
112.07
117.61
124.17
132.14
141.48
151.76
162.41
172.91
183.01
192.70
202.19
211.78
221.92
233.08
245.55
259.03
272.25
282.87
287.96
284.97
272.68
251.79
224.62
194.22
163.24
133.34
105.14
78.85
54.84
33.82
16.49
2.97
-7.67
-17.26
-27.91
-41.17
-57.39
-75.81
-95.17
-114.37
-133.21
-152.53
-173.75
-198.44
-227.96
-263.27
-304.53
-350.48
-397.80
-441.13
-474.29
-492.29
-493.18
-478.51
-452.18
-418.65
-381.71
-344.26
-308.79
-277.63
-252.40
-233.22
-218.53
-205.98
-193.84
-181.81
-170.54
-160.17
-149.54
-136.76
-121.15
-104.37
-89.78
-79.96
-74.18
-68.24
-56.98
-38.02
-13.95
8.83
23.78
28.08
24.15
18.10
16.01
20.75
31.16
43.60
54.81
63.71
71.36
79.32
88.02
96.17
101.87
104.18
104.21
104.91
109.54
119.92
135.44
153.14
169.02
179.57
182.84
178.73
168.49
153.93
136.84
118.70
100.58
83.18
66.97
52.03
37.98
23.97
8.86
-8.22
-27.29
-47.24
-66.08
-81.54
-91.98
-96.80
-96.48
-92.24
-85.53
-77.67
-69.95
-63.89
-61.27
-63.73
-71.81
-84.02
-96.72
-104.95
-104.29
-92.67
-71.39
-44.63
-17.79
4.72
21.19
32.95
43.37
55.80
71.72
89.87
106.81
118.57
122.53
118.72
109.56
98.63
88.60
79.99
71.31
60.46
46.50
30.82
16.70
7.60
5.18
8.05
12.04
11.91
3.70
-13.40
-36.47
-59.92
-77.57
-84.87
-80.29
-65.44
-44.23
-21.34
-1.16
12.98
18.95
15.86
4.45
-12.74
-31.38
-46.33
-53.19
-49.85
-37.24
-18.72
1.31
18.97
31.72
38.27
38.23
31.96
21.04
8.55
-1.46
-5.45
-2.19
6.50
16.70
24.61
28.80
30.80
33.86
40.59
51.07
62.67
71.43
74.30
70.47
61.44
49.68
37.17
24.52
11.47
-2.12
-15.13
-25.15
-29.42
-26.24
-16.10
-1.60
13.75
27.16
37.72
46.45
55.36
65.93
77.90
89.15
96.52
97.28
90.45
77.27
60.83
45.07
33.47
28.21
29.81
37.39
49.12
62.57
75.02
83.58
85.51
78.82
63.08
39.71
11.92
-16.01
-39.78
-56.06
-63.20
-61.68
-54.10
-44.50
-37.34
-36.03
-41.55
-51.94
-62.60
-67.89
-63.10
-46.32
-19.33
12.81
43.05
64.65
72.82
65.92
45.21
13.76
-25.32
-70.38
-121.37
-178.60
-240.51
-302.22
-355.67
-392.03
-405.04
-393.69
-362.54
-319.70
-273.41
-229.20
-189.01
-152.19
-117.67
-85.43
-56.47
-31.65
-10.24
10.37
33.68
62.08
95.24
129.78
160.12
180.59
187.59
180.83
163.26
139.76
115.17
92.66
73.12
55.53
38.22
20.16
1.72
-15.28
-28.30
-34.95
-33.80
-24.79
-9.08
11.41
34.53
58.32
81.31
102.46
121.06
136.49
148.17
155.75
159.42
159.99
158.73
156.77
154.55
151.61
146.91
139.53
129.15
116.06
100.78
83.50
64.01
42.05
18.08
-6.33
-28.72
-46.57
-58.22
-63.33
-62.60
-57.15
-47.94
-35.67
-21.11
-5.51
9.24
21.02
28.42
31.51
32.13
33.57
39.49
52.62
73.72
100.92
130.42
157.98
180.66
197.70
210.46
221.06
230.72
238.67
241.96
237.09
221.98
197.35
166.45
133.89
103.92
79.22
60.67
47.24
36.97
27.74
17.44
3.39
-17.56
-48.10
-88.67
-135.98
-183.49
-222.66
-245.81
-248.71
-232.71
-204.33
-172.82
-146.92
-127.94
-112.08
-93.44
-68.37
-35.27
4.18
45.45
82.76
111.31
128.83
135.55
133.86
126.97
117.67
107.28
96.08
84.31
73.06
64.19
58.86
56.96
57.18
58.19
59.56
62.42
68.82
80.20
96.08
113.01
125.72
129.27
121.18
102.24
75.88
46.55
17.86
-8.58
-33.25
-57.59
-82.57
-107.62
-130.63
-148.54
-158.31
-157.71
-145.94
-123.95
-94.38
-61.14
-28.84
-2.11
15.33
21.26
15.35
-0.92
-24.73
-52.52
-80.62
-105.80
-125.76
-139.60
-148.05
-153.33
-158.48
-166.33
-178.42
-194.53
-212.61
-229.65
-242.61
-249.55
-250.02
-245.06
-236.57
-226.56
-216.45
-206.87
-197.92
-189.48
