1672904765.00
64.000000
-0.00
-0.00
-0.00
-0.00
-0.00
-0.00
-0.00
-0.00
-0.00
-0.00
0.00
0.01
0.01
-0.00
-0.03
-0.05
-0.05
0.00
0.13
0.36
0.66
1.01
1.37
1.72
2.06
2.40
2.79
3.24
3.80
4.42
5.06
5.66
6.20
6.68
7.15
7.68
8.31
9.14
10.09
11.04
11.88
12.56
13.14
13.76
14.65
15.96
17.91
20.32
22.90
25.38
27.58
29.57
31.68
34.32
37.81
42.54
48.15
54.10
59.83
64.97
69.58
74.14
79.34
85.71
93.76
103.00
112.62
121.73
129.77
136.75
143.30
150.75
157.77
166.64
177.95
191.79
206.97
220.57
228.25
225.36
208.53
176.87
132.76
80.05
23.07
-34.94
-92.44
-149.16
-205.23
-260.37
-313.74
-363.87
-409.82
-450.88
-486.46
-515.67
-537.13
-549.09
-549.80
-538.16
-513.95
-478.37
-433.52
-382.04
-326.55
-269.32
-212.06
-156.03
-102.27
-51.65
-5.13
36.41
72.31
102.29
126.49
145.43
159.81
170.35
177.67
182.17
184.14
183.81
181.47
177.45
172.16
166.01
159.34
152.41
145.34
138.22
131.07
123.93
116.86
109.93
103.20
96.72
90.52
84.63
79.05
73.79
68.85
64.25
59.99
56.07
52.51
49.30
46.46
44.00
41.87
40.06
38.48
37.03
35.61
34.06
32.21
29.88
26.92
23.23
18.77
13.56
7.62
1.15
-5.56
-12.18
-18.40
-23.90
-28.42
-31.76
-33.78
-34.46
-33.76
-31.68
-28.25
-23.52
-17.57
-10.56
-2.69
6.01
14.90
23.29
30.45
35.73
38.54
38.41
34.94
28.07
17.96
4.87
-10.63
-27.90
-46.07
-64.17
-81.32
-96.69
-109.53
-119.21
-125.26
-127.29
-125.23
-119.10
-109.19
-96.07
-80.49
-63.27
-45.22
-27.09
-8.92
8.36
24.09
37.82
49.30
58.43
65.25
69.98
72.97
74.67
75.41
75.62
75.52
75.05
74.07
72.46
70.28
67.87
65.75
64.27
63.76
64.08
64.61
64.47
62.94
59.69
54.92
49.28
43.29
37.38
31.34
24.31
15.08
2.82
-12.41
-29.57
-46.94
-63.13
-77.08
-88.74
-99.11
-109.54
-121.32
-135.46
-152.62
-171.81
-192.11
-210.29
-221.34
-220.35
-204.62
-175.48
-138.35
-100.71
-68.99
-46.17
-30.84
-18.49
-5.05
11.41
30.31
49.56
67.33
83.07
97.34
110.27
122.48
133.40
141.69
145.84
145.09
139.87
131.72
122.72
114.96
109.87
107.55
107.01
107.07
105.81
102.41
97.08
90.89
85.35
81.73
80.52
81.73
85.22
90.61
96.94
101.77
101.34
91.66
70.70
39.84
4.17
-29.25
-54.30
-68.06
-71.64
-68.75
-63.37
-57.81
-52.35
-46.25
-39.09
-31.54
-24.97
-20.52
-18.27
-17.11
-15.40
-11.66
-5.40
2.58
10.76
17.48
21.58
22.84
21.93
20.06
18.32
17.21
16.20
14.28
10.17
3.03
-7.20
-19.62
-32.63
-44.45
-53.19
-58.81
-61.96
-63.95
-66.16
-69.46
-73.81
-78.31
-81.93
-83.44
-82.55
-79.87
-76.68
-74.33
-73.88
-76.02
-81.11
-88.95
-98.05
-105.48
-106.90
-98.22
-77.66
-47.22
-12.50
19.34
42.44
54.57
57.30
54.58
50.31
46.55
43.29
39.55
34.77
29.44
24.87
22.11
21.36
21.72
21.88
20.50
17.10
12.05
6.29
0.96
-3.13
-5.67
-6.98
-7.82
-9.00
-11.20
-14.68
-19.34
-24.72
-30.08
-34.60
-37.66
-38.96
-38.60
-36.96
-34.41
-31.32
-27.65
-22.84
-15.94
-5.69
9.36
30.54
58.08
90.14
122.01
146.86
157.20
149.40
124.64
88.76
50.12
16.78
-5.64
-14.59
-10.20
5.62
29.63
57.21
82.70
100.63
107.16
101.25
85.05
62.08
37.24
14.27
-4.50
-17.84
-25.02
-25.75
-20.76
-12.44
-5.21
-4.60
-15.66
-40.33
-75.99
-115.78
-150.91
-174.45
-183.02
-177.92
-163.46
-144.42
-123.77
-102.10
-78.82
-53.37
-27.55
-4.06
14.40
26.49
32.62
34.70
35.35
36.63
39.29
42.71
45.62
46.50
44.53
39.86
33.76
28.06
24.31
23.23
24.19
25.88
26.70
25.81
23.12
19.52
15.85
12.01
7.44
2.15
-2.11
-2.33
4.35
18.43
37.15
55.59
68.68
73.79
71.46
64.36
55.04
44.53
32.34
17.48
0.91
-15.15
-28.07
-36.41
-40.70
-43.19
-46.08
-50.34
-55.30
-58.84
-58.35
-51.16
-36.17
-14.79
8.62
27.47
35.14
28.00
7.55
-19.72
-44.91
-60.11
-62.36
-54.30
-42.07
-31.80
-27.13
-28.68
-35.59
-46.82
-61.23
-77.02
-90.76
-97.77
-94.21
-79.39
-56.45
-31.43
-10.43
3.15
9.42
11.35
12.79
16.41
22.96
31.74
41.57
50.91
59.85
68.19
75.27
80.05
81.67
79.76
74.98
68.69
62.54
58.01
55.53
54.63
54.20
53.01
50.30
46.52
42.16
38.33
36.21
36.16
37.79
40.05
41.72
41.98
40.76
38.71
36.95
36.61
38.10
40.97
44.11
46.27
46.64
45.09
42.46
39.50
37.12
35.94
36.36
38.56
42.09
45.58
46.57
42.19
30.46
11.53
-11.92
-35.54
-54.96
-67.59
-73.23
-73.67
-71.16
-67.30
-62.57
-56.91
-50.54
-44.39
-39.70
-37.33
-37.18
-38.27
-39.19
-38.80
-36.38
-31.80
-25.29
-17.30
-8.42
0.62
9.07
16.39
22.38
27.46
32.48
38.22
44.97
52.35
59.49
65.56
70.13
72.88
73.69
72.33
68.37
61.57
52.37
42.19
33.36
28.35
28.41
33.31
41.24
49.34
54.65
54.97
49.18
37.00
21.96
6.77
-6.10
-14.94
-18.96
-17.97
-12.10
-1.66
12.70
29.77
47.18
62.40
73.46
79.57
81.37
80.48
78.66
77.11
76.01
74.40
71.16
65.63
58.01
49.29
40.79
33.69
28.57
25.31
23.00
20.61
17.34
12.84
7.25
0.98
-5.63
-12.54
-20.19
-29.31
-40.61
-54.09
-68.67
-82.14
-91.80
-95.57
-93.21
-86.56
-78.70
-72.12
-67.35
-62.73
-55.66
-44.37
-29.07
-11.58
6.09
23.04
39.65
56.47
72.70
85.72
92.09
89.40
77.86
60.24
40.63
22.42
7.25
-4.82
-14.23
-20.82
-23.74
-21.92
-15.14
-4.51
7.68
18.67
26.11
28.57
25.70
18.13
7.40
-4.16
-13.69
-18.38
-16.46
-8.23
3.43
13.75
17.74
12.43
-1.67
-20.69
-39.00
-51.92
-57.20
-55.62
-50.02
-44.17
-41.33
-43.65
-51.63
-63.88
-77.17
-86.35
-85.89
-72.52
-47.90
-19.15
3.50
11.13
0.58
-24.43
-54.27
-77.95
-88.30
-85.16
-74.90
-67.00
-69.81
-87.66
-122.12
-170.55
-227.26
-284.73
-334.85
-369.81
-383.13
-371.36
-335.94
-287.54
-239.08
-201.51
-180.92
-177.75
-187.93
-204.96
-222.68
-238.03
-257.95
-289.67
-336.73
-397.92
-468.21
-540.65
-607.07
-658.82
-688.46
-698.92
-692.94
-670.61
-630.49
-571.76
-496.96
-411.38
-320.90
-184.56
6.63
229.62
443.56
617.36
742.60
824.82
872.98
895.74
900.78
887.52
857.81
821.52
782.59
742.70
699.92
650.42
592.45
527.75
455.19
377.26
299.25
226.06
159.95
103.81
56.46
15.31
-22.82
-65.19
-117.17
-180.16
-251.33
-323.62
-388.32
-437.49
-464.67
-466.71
-446.19
-408.47
-359.73
-306.02
-251.88
-200.43
-153.63
-111.61
-73.38
-38.28
-5.91
23.85
50.82
75.19
97.47
118.18
137.76
156.09
172.29
185.03
193.26
196.80
196.67
194.59
191.99
189.59
187.15
183.85
178.94
172.35
164.95
158.13
153.06
150.05
148.42
146.86
144.07
139.48
133.58
127.78
123.77
122.65
124.27
127.02
128.31
125.51
117.01
102.85
84.82
65.65
47.66
31.98
18.26
5.49
-6.97
-18.80
-28.96
-36.29
-40.63
-43.64
-47.69
-54.61
-64.27
-74.74
-83.65
-89.92
-94.44
-99.96
-110.46
-127.98
-151.99
-179.28
-205.60
-227.73
-244.19
-254.14
-256.49
-250.86
-236.21
-212.63
-181.53
-145.02
-105.11
-62.32
-14.34
42.79
111.27
187.33
257.52
305.28
321.88
309.93
277.83
234.30
193.77
154.87
116.24
78.54
44.49
17.57
-0.04
-9.74
-12.91
-11.59
-9.23
-7.10
-5.19
-2.26
3.26
11.79
21.83
30.99
37.02
38.02
35.53
33.10
34.82
43.35
58.28
76.05
91.88
101.91
104.13
100.17
93.56
88.08
86.48
89.66
96.98
106.92
117.46
125.93
130.04
128.11
120.01
107.63
94.36
83.39
75.77
69.29
59.19
41.11
13.86
-18.96
-50.00
-71.60
-79.77
-76.58
-69.82
-69.79
-84.98
-118.68
-167.86
-224.42
-277.89
-318.51
-339.77
-339.43
-319.28
-284.14
-241.03
-198.51
-165.61
-150.17
-155.85
-180.46
-215.75
-249.88
-271.83
-276.09
-264.96
-246.96
-231.97
-225.46
-226.52
-228.97
-225.18
-210.03
-182.92
-147.23
-107.78
-68.24
-28.86
11.66
54.54
99.84
146.56
193.19
237.87
278.38
312.13
337.71
353.76
359.30
354.31
340.18
319.32
294.24
266.99
231.65
187.56
139.78
96.66
64.14
42.85
29.66
20.40
12.01
3.36
-3.82
-7.60
-7.32
-4.07
0.15
3.38
4.43
2.99
-0.25
-3.14
-3.96
-2.21
1.41
5.63
9.40
12.10
13.45
13.59
13.42
13.63
14.35
15.27
16.09
16.68
17.13
17.44
17.29
16.91
16.21
15.02
13.25
11.08
8.92
7.10
5.50
3.54
0.75
-3.41
-9.06
-15.62
-21.76
-26.01
-26.96
-24.01
-17.36
-7.45
4.58
17.21
28.86
38.41
46.06
53.95
65.90
86.15
117.72
159.85
207.77
254.42
293.17
320.15
335.00
339.65
333.34
316.51
289.33
252.26
207.11
157.67
109.07
66.20
31.91
6.16
-13.14
-29.77
-47.29
-67.55
-90.02
-112.31
-131.09
-143.87
-150.08
-151.28
-151.25
-155.32
-168.94
-196.02
-237.27
-288.64
-340.85
-380.91
-395.58
-376.77
-325.59
-253.25
-177.97
-119.02
-90.45
-96.92
-133.10
-185.90
-239.25
-278.77
-295.41
-287.19
-258.67
-218.66
-176.87
-140.80
-113.76
-95.18
-81.85
-69.92
-56.36
-39.46
-18.63
5.69
31.90
57.23
78.16
91.42
95.17
89.59
76.95
60.79
45.06
33.05
26.67
26.04
29.61
34.90
39.54
42.35
44.01
46.84
53.70
66.45
85.00
107.09
129.10
147.42
159.68
165.33
165.31
161.36
155.18
148.24
142.05
138.35
138.88
144.53
154.16
164.22
169.51
165.33
149.84
124.94
95.31
65.83
39.10
14.56
-10.13
-36.45
-62.92
-85.16
-97.96
-98.02
-85.93
-66.49
-46.85
-33.89
-31.60
-39.75
-54.59
-71.12
-86.13
-99.82
-115.47
-136.63
-163.56
-191.51
-211.80
-215.77
-198.94
-163.08
-115.14
-63.73
-15.67
25.20
56.81
76.93
82.29
69.68
38.08
-9.72
-67.19
-125.82
-177.67
-217.49
-243.51
-256.81
-259.98
-255.68
-245.63
-230.39
-209.86
-184.01
-153.46
-119.41
-83.53
-47.70
-13.74
16.88
43.19
64.97
82.82
97.84
110.56
119.95
123.15
116.53
97.68
67.40
30.29
-6.31
-34.60
-48.79
-46.66
-29.69
-2.01
31.01
64.08
93.10
115.68
131.18
140.14
143.67
142.90
138.89
132.73
125.72
119.26
114.23
110.49
106.83
101.43
92.49
78.78
59.78
35.57
6.85
-24.66
-55.94
-82.98
-101.76
-109.67
-106.63
-95.10
-79.05
-62.55
-48.51
-38.17
-31.26
-26.49
-22.31
-17.37
-10.98
-3.18
5.24
13.16
19.46
23.38
24.63
23.39
20.10
15.37
10.03
5.14
1.84
0.86
2.05
4.33
5.93
5.22
1.44
-4.75
-11.59
-16.86
-18.92
-17.37
-13.31
-8.81
-6.17
-7.13
-12.29
-20.99
-31.52
-41.58
-48.82
-51.45
-48.79
-41.37
-30.85
-19.31
-8.51
0.64
8.22
14.79
20.81
26.19
30.40
32.96
33.96
34.26
35.14
37.80
42.79
49.88
58.22
66.86
74.98
82.09
87.97
92.53
95.77
97.81
98.86
99.17
99.02
98.54
97.85
97.02
96.09
95.05
93.75
91.92
89.32
85.91
81.90
77.74
73.79
70.17
66.68
63.12
59.40
55.84
53.11
51.81
52.11
53.34
54.32
53.91
51.78
48.61
45.86
45.08
47.04
51.32
56.32
60.02
60.99
59.25
56.06
53.54
53.71
57.58
64.64
72.71
78.58
79.18
72.83
58.98
38.80
15.37
-6.99
-23.52
-30.89
-28.26
-17.30
-0.95
16.26
30.21
39.00
43.01
44.52
45.37
45.81
44.56
40.90
33.80
23.55
12.20
1.64
-7.27
-16.95
-32.23
-57.81
-94.25
-139.88
-191.28
-245.50
-299.32
-342.88
-366.25
-366.42
-358.33
-343.01
-316.18
-273.96
-210.74
-130.69
-41.36
48.90
133.67
208.40
260.24
274.54
247.65
192.96
132.34
85.43
61.18
57.22
62.65
65.07
55.55
32.46
0.74
-32.45
-59.53
-79.20
-91.86
-99.10
-101.64
-98.90
-89.15
-71.84
-49.66
-27.64
-11.74
-5.84
-10.37
-21.34
-32.92
-37.42
-30.10
-12.34
9.68
28.70
41.29
49.46
59.34
76.90
103.47
133.43
156.31
162.23
147.26
115.66
77.28
42.91
20.15
11.10
12.30
16.55
15.59
3.45
-21.25
-55.31
-92.45
-125.64
-149.29
-160.53
-159.10
-146.67
-124.50
-92.88
-52.62
-7.06
37.69
74.46
98.04
107.40
104.77
95.07
83.41
72.26
60.63
45.70
24.03
-1.02
-21.21
-33.37
-42.18
-55.56
-78.59
-109.42
-138.97
-154.88
-152.09
-127.70
-87.83
-44.49
-10.22
6.24
2.29
-19.01
-51.71
-90.11
-128.17
-162.44
-190.71
-210.98
-221.70
-222.64
-215.68
-204.47
-192.72
-182.27
-173.40
-164.21
-151.74
-134.07
-111.46
-86.11
-60.95
-37.92
-17.36
0.61
15.97
28.93
40.23
51.07
62.42
74.02
84.14
90.27
90.13
83.35
71.86
58.96
47.86
40.45
37.23
38.10
43.49
54.34
71.50
94.73
122.02
149.76
173.68
190.14
197.26
195.27
186.42
173.95
160.80
148.43
136.37
122.74
105.39
83.20
56.80
28.55
1.78
-20.10
-34.68
-41.18
-40.61
-35.37
-28.48
-22.69
-19.41
-18.30
-17.44
-14.47
-7.84
2.34
14.23
25.24
33.21
37.39
38.62
38.82
40.14
44.13
51.16
60.33
69.78
77.35
81.55
82.21
80.62
79.10
79.88
84.05
90.89
98.42
104.42
107.60
108.14
107.32
106.89
108.64
114.29
125.37
142.90
166.61
194.26
221.86
244.72
259.10
263.63
259.75
250.70
239.87
229.20
218.59
206.45
190.93
171.19
147.59
121.19
92.60
60.90
23.32
-23.93
-83.90
-157.02
-239.52
-323.69
-399.36
-456.53
-488.04
-491.58
-470.54
-432.93
-389.09
-348.56
-317.28
-295.94
-280.47
-264.20
-241.02
-208.00
-166.27
-119.95
-73.85
-31.27
6.91
41.45
73.11
101.66
125.70
143.78
155.61
162.53
166.83
170.58
174.54
177.94
179.35
177.47
171.57
161.12
145.60
124.52
98.08
67.76
36.08
5.55
-22.54
-48.35
-72.71
-95.55
-114.98
-128.03
-132.78
-130.30
-124.95
-122.34
-126.38
-136.97
-150.11
-160.47
-164.61
-162.70
-157.99
-154.71
-155.83
-161.87
-170.76
-178.40
-179.91
-171.16
-150.24
-118.16
-78.50
-36.18
4.13
40.08
72.08
102.18
132.06
161.92
190.81
217.74
242.61
264.87
284.00
299.39
310.28
315.80
315.20
307.95
293.18
268.90
229.94
172.06
95.69
7.60
-80.95
-157.21
-210.42
-235.15
-233.03
-215.47
-196.05
-183.74
-179.87
-180.57
-179.84
-172.89
-158.51
-139.71
-126.58
-127.71
-144.82
-172.89
-206.03
-240.99
-277.69
-317.75
-333.82
-308.70
-248.75
-177.39
-112.02
-56.66
-8.14
36.23
75.70
106.96
122.30
118.16
97.98
74.79
60.48
61.06
75.54
97.63
118.96
128.91
121.58
99.17
70.68
45.67
31.64
31.53
43.01
59.56
71.36
71.81
61.67
48.68
42.13
48.28
67.47
94.61
122.23
143.16
154.29
157.30
156.66
155.91
155.82
154.38
148.52
136.02
116.32
91.25
64.46
40.29
21.96
10.47
4.12
-0.56
-7.21
-17.67
-31.14
-44.79
-55.52
-61.82
-64.40
-65.35
-66.64
-68.94
-71.91
-75.57
-81.70
-93.34
-112.58
-138.14
-164.65
-184.95
-194.14
-192.70
-186.47
-183.60
-189.83
-205.43
-225.36
-241.90
-248.23
-240.54
-218.45
-184.24
-141.75
-95.67
-51.01
-12.22
18.02
39.92
56.63
73.16
94.31
123.07
159.60
201.59
245.15
285.81
319.01
340.87
349.22
344.40
329.60
309.96
290.51
274.11
260.33
245.64
225.07
194.58
152.34
99.27
38.10
-26.93
-89.87
-143.46
-180.80
-198.35
-198.18
-187.82
-176.30
-170.46
-171.52
-175.06
-174.66
-166.88
-153.98
-142.40
-138.56
-143.92
-155.26
-166.06
-168.77
-157.46
-130.27
-89.80
-42.08
5.42
47.52
80.45
102.71
115.88
123.30
127.92
131.32
134.69
140.20
152.61
173.68
199.91
223.42
234.70
225.94
194.32
143.99
74.10
0.43
-56.04
-85.31
-92.71
-89.60
-84.67
-81.37
-79.63
-78.63
-76.87
-76.15
-79.54
-87.84
-98.42
-106.96
-110.23
-107.72
-101.62
-93.99
-87.73
-84.62
-83.47
-80.54
-72.03
-56.47
-35.94
-15.18
1.51
10.94
12.58
9.40
6.64
9.14
19.34
36.71
58.68
82.52
105.50
125.29
140.36
150.02
154.36
154.02
150.27
144.79
139.01
132.96
124.38
109.19
83.19
44.66
-3.72
-54.50
-97.67
-124.24
-129.66
-115.74
-89.86
-62.14
-41.82
-34.70
-42.09
-61.31
-86.79
-111.45
-128.52
-133.39
-124.83
-105.50
-81.47
-60.60
-50.13
-54.08
-70.79
-93.46
-112.52
-119.42
-110.03
-86.51
-56.30
-28.52
-9.25
2.17
11.37
24.70
45.14
70.77
96.30
115.92
126.36
128.73
128.79
131.91
139.05
145.97
146.19
135.30
112.97
83.20
53.15
32.21
26.44
35.72
54.51
75.25
92.05
101.31
101.67
82.05
39.98
-13.27
-58.44
-82.52
-84.89
-73.43
-56.94
-43.97
-38.75
-39.71
-43.03
-45.25
-44.14
-41.09
-33.94
-20.69
-1.42
21.64
45.88
67.56
81.98
84.68
73.42
49.78
17.62
-17.87
-50.72
-74.41
-84.13
-78.34
-58.91
-29.71
5.32
42.28
77.63
108.53
133.14
149.91
157.44
154.92
142.87
123.41
99.07
71.83
43.26
14.99
-11.29
-34.11
-53.05
-69.26
-85.05
-102.96
-124.21
-146.74
-165.29
-173.52
-167.62
-148.80
-122.71
-95.98
-72.21
-50.86
-28.09
-0.21
32.99
66.88
94.16
108.87
109.68
100.17
84.96
67.84
51.08
36.21
24.54
16.96
13.30
11.95
10.21
4.09
-8.90
-28.39
-51.79
-76.95
-103.58
-132.45
-163.23
-183.13
-179.51
-148.84
-100.93
-51.08
-11.66
11.82
20.27
19.07
14.51
8.90
1.13
-11.25
-29.04
-52.00
-76.12
-96.11
-106.51
-103.30
-86.56
-59.70
-28.38
2.13
27.26
44.20
52.41
53.80
51.68
46.85
39.61
29.43
16.92
3.37
-8.76
-16.32
-16.23
-6.83
10.51
31.31
49.46
62.17
69.64
72.97
71.93
64.65
49.08
24.95
-2.66
-29.49
-48.08
-52.08
-39.14
-12.05
22.31
55.80
81.92
98.31
101.37
93.33
78.15
59.08
37.57
13.60
-13.18
-42.38
-72.67
-102.69
-130.35
-154.90
-176.46
-194.55
-206.75
-208.65
-195.76
-166.57
-124.86
-78.51
-37.59
-9.97
2.32
3.68
2.25
5.54
17.19
36.27
59.82
84.97
110.42
136.18
161.96
185.83
204.05
212.68
209.51
195.98
176.85
159.06
149.43
152.32
168.01
192.56
219.29
241.07
252.83
252.64
241.60
222.34
197.41
168.43
136.08
100.88
63.67
25.89
-10.82
-45.09
-75.91
-102.72
-125.24
-143.52
-158.27
-170.96
-183.39
-196.94
-212.15
-228.78
-246.31
-264.02
-280.77
-293.99
-299.13
-290.12
-261.67
-212.09
-145.29
-70.41
1.53
61.72
106.41
137.01
157.77
172.68
183.43
189.59
189.49
182.55
169.69
152.67
133.05
111.79
89.23
65.39
40.23
12.87
-16.33
-45.28
-69.88
-85.01
-86.36
-72.52
-46.54
-15.51
10.48
24.15
22.79
8.53
-13.87
-39.68
-66.20
-93.20
-121.60
-153.04
-184.58
-209.75
-221.15
-214.59
-192.00
-161.20
-132.90
-104.26
-77.42
-55.50
-41.00
-33.64
-32.23
-35.55
-41.15
-44.93
-42.45
-36.68
-27.95
-18.87
-12.63
-11.40
-15.21
-22.14
-29.88
-36.91
-44.20
-49.43
-50.84
-46.35
-34.59
-15.97
7.19
31.42
53.55
71.16
84.70
95.50
105.30
115.24
125.88
137.62
150.69
164.92
178.80
190.61
198.45
201.83
201.79
200.27
198.67
196.77
192.83
184.63
171.36
153.91
134.78
116.58
100.77
87.27
74.84
62.10
48.39
34.27
21.18
10.84
4.34
1.59
1.35
1.81
1.47
-0.56
-4.76
-11.84
-22.99
-39.33
-60.64
-84.62
-106.85
-122.57
-129.11
-127.44
-121.94
-118.33
-120.72
-129.67
-142.06
-152.97
-158.03
-155.69
-147.49
-137.04
-128.06
-122.66
-120.47
-119.32
-116.89
-112.34
-106.82
-102.48
-100.70
-100.82
-100.30
-96.44
-88.54
-78.89
-71.62
-70.02
-74.05
-80.00
-82.42
-77.39
-64.89
-48.71
-34.24
-25.30
-22.30
-22.51
-21.93
-17.44
-7.68
6.90
25.05
45.61
67.89
91.52
116.04
140.62
163.91
184.13
199.45
208.78
212.38
212.09
210.85
211.55
215.66
222.37
228.88
231.73
228.59
219.23
205.40
189.38
172.84
156.06
138.36
119.11
98.62
78.14
58.78
40.60
22.16
1.55
-22.40
-49.19
-76.62
-101.76
-122.09
-136.60
-145.65
-150.39
-151.42
-149.31
-145.59
-143.04
-144.77
-152.33
-164.81
-179.24
-192.27
-200.81
-203.92
-203.25
-201.38
-199.79
-197.60
-193.00
-185.60
-177.86
-172.29
-170.31
-171.28
-171.63
-165.72
-147.31
-112.86
-63.49
-5.15
56.19
115.43
168.41
209.90
230.78
226.58
202.66
175.52
151.35
132.71
120.31
111.84
104.92
97.00
87.31
76.47
65.08
51.89
36.19
19.16
2.31
-12.83
-24.70
-31.09
-30.93
-26.17
-22.82
-24.33
-31.57
-43.29
-56.46
-68.01
-75.44
-77.42
-72.64
-62.01
-45.58
-23.32
3.58
33.04
60.52
80.75
92.80
101.44
112.09
126.64
141.50
149.95
147.21
133.33
113.86
97.38
90.87
95.49
107.17
120.67
127.97
124.16
108.25
83.03
53.76
25.69
1.49
-18.32
-34.73
-49.35
-62.87
-75.35
-86.69
-97.68
-106.90
-114.96
-122.13
-127.76
-130.57
-129.27
-123.98
-116.46
-109.23
-104.16
-101.86
-100.75
-97.91
-90.66
-77.61
-59.34
-38.07
-16.60
2.75
18.19
29.19
36.11
39.99
42.11
43.59
44.98
46.17
46.35
44.10
38.18
28.02
14.31
-0.99
-15.20
-25.91
-31.83
-33.06
-31.00
-27.53
-24.27
-21.64
-18.81
-14.38
-7.49
1.82
12.69
23.87
34.62
44.76
55.31
67.75
82.88
98.96
112.05
117.41
111.26
92.27
61.50
22.73
-18.97
-58.89
-94.82
-126.23
-152.91
-174.22
-189.15
-197.78
-200.73
-199.25
-195.02
-190.98
-189.42
-190.49
-192.26
-186.62
-170.05
-144.78
-117.64
-88.39
-56.16
-22.09
11.32
41.42
66.25
84.28
96.14
104.71
114.12
126.63
142.14
158.19
170.77
175.90
171.30
158.65
143.32
131.82
127.57
129.81
134.55
137.35
136.26
132.94
132.32
139.74
157.58
182.73
207.92
224.92
228.08
216.53
194.11
167.70
144.07
127.09
116.02
106.34
92.36
70.27
39.92
4.66
-30.37
-60.74
-84.43
-102.18
-116.00
-127.41
-136.42
-141.84
-142.67
-139.15
-132.91
-125.90
-118.95
-110.96
-99.24
-81.01
-55.08
-22.95
11.30
42.18
64.54
75.31
74.63
65.99
55.16
48.13
48.87
57.86
72.05
86.33
95.64
96.40
86.94
66.92
36.87
-1.85
-46.39
-91.96
-132.28
-161.18
-174.96
-173.85
-161.84
-144.41
-125.54
-105.83
-82.67
-52.51
-13.54
32.46
80.50
124.42
159.33
183.19
196.72
202.15
201.70
196.90
188.77
178.21
166.12
152.79
137.53
118.73
94.82
65.44
32.17
-1.65
-32.18
-56.66
-74.29
-86.32
-94.94
-101.92
-107.75
-111.47
-111.30
-105.75
-94.67
-79.57
-63.23
-48.69
-37.92
-30.85
-25.48
-18.80
-8.31
6.75
25.04
43.51
58.47
66.71
66.42
57.36
40.70
18.51
-6.91
-33.39
-59.26
-83.51
-105.73
-125.85
-143.79
-159.20
-171.10
-177.80
-177.16
-167.46
-148.20
-121.05
-89.75
-59.30
-34.29
-17.67
-10.25
-11.21
-19.10
-32.46
-49.91
-69.67
-89.29
-105.89
-117.09
-122.04
-121.89
-119.41
-117.73
-119.17
-124.43
-132.57
-141.42
-148.31
-150.54
-145.68
-132.05
-109.39
-79.65
-47.02
-16.90
5.84
18.70
22.20
19.00
11.98
2.58
-9.43
-24.67
-42.53
-60.46
-74.88
-82.89
-83.79
-79.22
-71.80
-63.51
-54.91
-45.46
-34.86
-23.99
-14.89
-9.50
-8.23
-9.16
-8.68
-3.08
9.76
29.58
54.00
79.75
103.83
124.29
140.14
150.97
156.80
158.32
157.17
155.72
156.14
158.93
162.22
162.27
155.19
138.90
114.05
83.56
51.27
20.58
-6.23
-27.81
-43.31
-52.26
-54.63
-51.03
-42.80
-31.72
-19.72
-8.46
0.92
7.95
12.94
16.76
20.40
24.58
29.62
35.95
44.65
57.40
75.55
98.53
122.87
142.90
152.98
150.23
136.07
115.38
94.16
76.46
62.79
50.42
35.17
13.73
-14.55
-47.19
-79.17
-104.41
-117.63
-116.14
-101.02
-76.88
-50.62
-29.19
-17.52
-17.31
-27.19
-43.77
-63.26
-82.62
-100.07
-114.68
-125.53
-131.25
-130.25
-121.55
-105.71
-85.22
-63.73
-44.76
-30.52
-21.57
-17.39
-16.97
-19.05
-21.79
-22.37
-17.31
-3.67
19.32
49.45
81.76
110.06
128.83
134.58
126.63
107.11
80.75
54.08
34.09
26.45
33.59
53.76
81.50
109.67
132.08
145.60
150.88
151.51
152.02
155.84
164.13
175.70
187.97
198.05
203.66
203.44
196.93
184.31
166.33
144.14
119.14
92.75
66.07
39.66
13.68
-11.64
-35.38
-55.75
-70.50
-77.76
-76.90
-68.92
-56.18
-41.32
-26.23
-11.32
4.23
21.62
41.21
61.73
80.29
93.13
96.73
88.91
69.45
39.98
3.19
-38.06
-81.16
-123.53
-162.14
-193.27
-213.32
-220.35
-215.64
-204.01
-192.63
-188.20
-194.05
-208.50
-225.73
-238.54
-241.59
-233.50
-216.62
-195.10
-172.36
-149.74
-126.69
-102.14
-76.14
-50.73
-29.21
-14.84
-9.37
-12.55
-22.36
-35.92
-50.24
-62.62
-70.89
-73.63
-70.53
-62.69
-52.38
-42.50
-35.71
-33.87
-37.70
-46.68
-59.10
-72.26
-82.93
-88.17
-86.25
-77.35
-63.61
-48.40
-35.24
-26.72
-24.12
-27.41
-35.73
-47.54
-60.50
-71.46
-76.73
-73.02
-58.41
-32.95
1.50
41.91
85.02
128.04
168.90
206.14
238.43
264.30
281.95
289.46
285.46
269.95
244.86
213.86
181.36
150.98
124.33
100.64
77.77
53.75
28.09
1.85
-23.19
-45.70
-65.47
-83.33
-100.31
-116.82
-132.09
-144.40
-151.84
-153.35
-149.41
-142.15
-134.76
-130.30
-130.58
-135.57
-143.81
-153.28
-162.49
-170.77
-177.94
-183.46
-185.93
-183.52
-175.14
-161.72
-146.42
-133.60
-126.87
-127.22
-132.33
-137.42
-137.33
-128.58
-110.62
-85.49
-56.36
-25.90
4.82
36.24
69.52
105.67
145.16
188.06
234.23
283.19
333.58
382.54
425.94
459.35
479.61
486.17
481.19
468.70
452.88
436.71
421.56
407.60
394.69
383.10
373.40
365.94
360.20
354.42
345.72
330.85
307.05
272.59
227.31
172.34
109.39
40.45
-32.31
-106.03
-176.68
-239.23
-288.99
-323.10
-341.67
-347.80
-345.87
-339.58
-331.53
-321.85
-309.63
-294.79
-278.56
-261.46
-244.13
-226.35
-207.32
-186.26
-165.01
-145.31
-128.33
-113.75
-99.75
-84.09
-65.05
-42.64
-18.95
2.92
20.45
32.65
40.48
45.74
50.03
54.63
60.08
66.17
72.44
78.51
83.86
87.70
88.10
82.89
71.90
57.69
44.72
37.71
39.59
49.91
64.76
77.28
81.14
75.13
63.73
54.39
53.94
65.67
88.22
116.48
141.68
154.06
147.07
118.50
69.57
4.51
-70.52
-149.28
-214.88
-253.47
-266.08
-262.87
-252.21
-236.85
-215.90
-189.57
-161.31
-139.12
-127.57
-129.20
-140.84
-154.38
-161.15
-154.58
-133.00
-98.94
-56.67
-9.85
36.83
78.87
111.79
132.81
143.86
148.67
149.89
148.05
141.60
127.91
106.03
81.90
56.17
31.03
8.57
-9.81
-23.75
-34.09
-42.73
-50.67
-57.22
-62.73
-65.79
-66.05
-64.69
-63.72
-64.94
-69.12
-75.03
-79.74
-80.30
-73.86
-59.78
-39.54
-15.84
8.85
33.13
57.42
83.80
114.80
153.34
200.64
255.22
312.39
364.87
404.54
424.95
423.58
402.48
367.60
325.70
281.54
236.27
187.80
132.99
69.82
-0.74
-74.52
-144.69
-203.56
-244.38
-263.22
-260.52
-241.68
-215.88
-193.04
-180.10
-178.28
-182.94
-186.11
-180.47
-162.66
-134.33
-100.96
-69.55
-46.44
-35.83
-38.83
-53.17
-73.61
-93.25
-105.66
-106.94
-96.90
-78.73
-57.04
-35.48
-15.60
2.87
20.59
37.08
51.05
61.37
68.12
72.60
76.39
79.66
80.13
73.46
54.83
22.74
-19.40
-63.81
-101.06
-122.90
-124.97
-108.12
-78.30
-45.59
-19.97
-8.87
-15.99
-40.98
-79.36
-123.87
-166.58
-201.10
-224.63
-235.56
-232.67
-215.37
-184.63
-143.18
-96.05
-50.24
-6.67
26.76
42.01
38.32
23.83
9.17
2.73
7.65
22.49
42.93
62.98
76.98
81.79
77.21
65.91
53.27
45.67
47.95
60.95
79.97
97.90
108.33
107.70
96.21
77.66
57.27
39.25
25.24
14.04
4.23
-4.67
-12.90
-21.72
-33.74
-51.88
-77.42
-108.27
-139.15
-162.66
-172.26
-165.31
-143.87
-113.04
-78.18
-42.35
-5.45
34.51
79.59
129.90
182.20
230.54
268.34
290.57
295.29
283.83
260.07
229.70
199.37
174.57
158.91
153.80
158.49
170.16
184.18
195.11
198.71
193.70
180.29
160.11
136.31
112.94
94.20
82.11
75.28
70.31
64.31
53.51
34.61
5.73
-34.21
-84.09
-142.62
-209.16
-282.24
-352.01
-403.78
-426.96
-422.39
-400.11
-368.21
-331.43
-292.47
-256.97
-219.00
-174.48
-122.32
-63.60
-1.98
61.93
129.23
197.21
255.68
294.33
305.42
289.65
269.28
251.89
243.33
248.12
261.01
278.62
297.81
314.07
323.41
323.25
310.64
286.37
252.07
208.56
157.69
102.54
46.07
-8.90
-60.21
-107.98
-150.62
-186.25
-213.66
-231.77
-240.86
-243.48
-244.24
-248.81
-263.39
-290.48
-328.59
-372.69
-414.55
-445.27
-457.99
-449.61
-421.15
-376.82
-320.63
-255.36
-183.05
-105.87
-27.66
46.08
109.65
159.41
194.66
217.45
230.30
233.95
227.96
212.55
190.39
166.77
148.05
138.79
139.45
145.83
149.49
142.55
121.35
87.99
49.18
13.71
-10.56
-19.36
-13.15
0.77
13.81
20.44
19.96
15.40
11.34
12.10
20.17
35.89
53.17
65.53
69.20
63.30
47.76
22.25
-13.21
-57.61
-108.25
-166.85
-232.89
-301.66
-365.90
-420.00
-462.36
-494.46
-518.98
-506.12
-441.97
-338.54
-226.66
-132.89
-68.73
-34.01
-22.21
-26.93
-37.85
-52.76
-70.71
-88.91
-102.73
-108.44
-104.77
-90.16
-66.88
-38.31
-12.58
4.42
12.28
15.71
20.81
31.65
48.89
69.73
90.35
104.66
109.66
107.02
101.80
99.08
101.86
110.86
125.24
144.25
166.04
189.48
214.51
241.65
271.21
303.01
336.61
371.20
405.89
438.77
467.55
489.99
504.28
509.22
504.43
490.68
470.07
446.24
423.81
407.53
400.94
404.93
416.99
431.45
441.17
439.67
423.29
392.00
348.70
297.48
241.78
183.37
122.41
58.31
-9.17
-79.17
-149.15
-214.86
-270.75
-311.21
-332.30
-333.44
-318.18
-293.39
-266.99
-245.47
-232.36
-228.40
-232.89
-245.12
-264.75
-291.09
-321.96
-353.26
-379.82
-397.16
-403.15
-398.77
-387.36
-372.91
-358.22
-344.06
-329.40
-312.71
-293.18
-271.37
-248.94
-227.62
-208.34
-190.90
-174.24
-157.20
-139.11
-119.92
-99.92
-79.41
-58.39
-36.82
-14.78
7.21
28.23
47.12
62.73
74.31
81.72
85.62
87.20
87.91
88.97
91.14
94.64
99.27
104.33
108.58
110.33
107.80
99.87
86.63
69.54
51.11
33.95
20.11
10.66
5.77
4.99
7.40
11.53
15.34
16.51
13.02
4.06
-9.50
-25.30
-40.21
-51.48
-57.54
-58.36
-55.16
-49.73
-43.73
-38.21
-33.58
-29.81
-26.70
-24.02
-21.53
-18.83
-15.40
-10.76
-4.72
2.35
9.59
15.91
20.56
23.37
24.88
25.96
27.44
29.77
32.86
36.36
39.88
43.17
46.08
48.54
50.33
51.22
50.99
49.60
47.18
44.03
40.50
37.00
34.00
31.99
31.32
32.05
33.81
35.86
37.34
37.60
36.42
33.95
30.59
26.71
22.55
18.27
14.02
9.96
6.27
2.97
-0.04
-3.03
-6.23
-9.78
-13.68
-17.85
-22.18
-26.55
-30.83
-34.82
-38.37
-41.41
-44.12
-46.87
-50.06
-53.85
-57.92
-61.40
-63.16
-62.13
-57.70
-49.97
-39.71
-28.13
-16.56
-6.14
2.34
8.64
12.92
15.79
18.01
20.23
22.77
25.49
27.86
29.28
29.41
28.33
26.55
24.75
23.42
22.70
22.35
21.96
21.18
19.85
17.99
15.69
13.00
9.91
6.39
2.39
-2.13
-7.24
-13.03
-19.48
-26.38
-33.39
-40.09
-46.24
-51.93
-57.53
-63.57
-70.41
-78.04
-86.03
-93.70
-100.42
-105.94
-110.63
-115.34
-121.09
-128.54
-137.66
-147.62
-157.12
-164.84
-169.80
-171.56
-169.95
-164.98
-156.80
-145.97
-133.61
-121.28
-110.09
-99.63
-87.34
-68.94
-39.88
2.83
59.26
126.66
200.89
278.17
355.82
431.47
501.44
559.47
597.44
607.88
587.10
537.24
465.63
382.03
295.00
209.60
127.62
49.57
-22.82
-85.63
-133.87
-163.86
-175.40
-172.26
-160.74
-147.22
-135.87
-127.69
-121.16
-113.98
-104.92
-94.65
-85.40
-79.70
-78.92
-82.63
-88.92
-95.46
-100.73
-104.62
-108.07
-112.13
-117.10
-122.13
-125.71
-126.41
-123.61
-117.73
-109.87
-101.29
-92.84
-84.75
-76.77
-68.41
-59.23
-49.09
-38.21
-27.07
-16.29
-6.42
2.16
9.40
15.50
20.90
26.06
31.39
37.17
43.56
50.68
58.54
67.01
75.59
83.50
89.77
93.63
94.99
94.46
93.22
92.44
92.82
94.30
96.26
97.92
98.78
98.71
97.82
96.27
94.00
90.78
86.37
80.68
73.86
66.28
58.44
50.76
43.50
36.76
30.47
24.52
18.89
13.68
9.13
5.36
2.35
-0.17
-2.58
-5.26
-8.40
-12.04
-16.16
-20.69
-25.58
-30.69
-35.76
-40.44
-44.38
-47.43
-49.63
-51.16
-52.18
-52.78
-52.98
-52.79
-52.35
-51.81
-51.40
-51.19
-51.15
-51.04
-50.56
-49.37
-47.25
-44.16
-40.23
-35.75
-31.09
-26.59
-22.57
-19.25
-16.78
-15.11
-13.96
-12.81
-11.01
-8.04
-3.69
1.83
8.03
14.28
20.02
24.89
28.67
31.27
32.63
32.80
31.97
30.42
28.51
26.52
24.54
22.51
20.29
17.77
15.00
12.23
9.75
7.84
6.62
6.03
5.84
5.77
5.62
5.30
4.86
4.43
4.15
4.18
4.64
5.67
7.36
9.80
12.97
16.85
21.35
26.42
31.96
37.77
43.52
48.69
52.57
54.52
54.18
51.63
47.48
42.57
37.67
33.19
29.07
24.91
20.26
14.88
8.83
2.42
-3.97
-9.94
-15.05
-18.76
-20.48
-19.66
-16.07
-9.91
-1.77
7.48
16.94
25.60
32.37
36.00
35.32
29.76
19.75
6.74
-7.30
-20.74
-32.90
-44.18
-55.62
-68.08
-81.72
-95.86
-109.38
-121.21
-130.70
-137.58
-141.71
-142.88
-140.75
-135.15
-126.28
-114.92
-102.33
-89.86
-78.57
-68.94
-60.80
-53.57
-46.63
-39.69
-32.85
-26.52
-21.07
-16.62
-12.96
-9.68
-6.37
-2.84
0.87
4.54
7.92
10.93
13.58
15.97
18.13
20.03
21.55
22.63
23.35
23.89
24.45
25.08
25.67
25.96
25.69
24.82
23.53
22.21
21.27
20.97
21.25
21.80
22.15
21.87
20.76
18.91
16.69
14.53
12.77
11.50
10.61
9.88
9.04
7.91
6.43
4.65
2.72
0.85
-0.75
-1.91
-2.58
-2.86
-2.99
-3.20
-3.66
-4.43
-5.50
-6.80
-8.30
-9.97
-11.77
-13.67
-15.68
-17.81
-20.03
-22.18
-23.92
-24.78
-24.30
-22.23
-18.67
-14.09
-9.15
-4.48
-0.47
2.78
5.36
7.40
8.91
9.76
9.81
9.02
7.60
6.01
4.79
4.38
4.98
6.41
8.31
10.22
11.72
12.47
12.17
10.64
7.92
4.49
1.26
-0.61
-0.19
2.78
7.74
13.50
18.82
22.73
24.90
25.42
24.51
22.36
19.07
14.81
10.01
5.32
1.42
-1.22
-2.51
-2.71
-2.27
-1.63
-1.11
-0.92
-1.13
-1.75
-2.72
-3.89
-5.11
-6.28
-7.41
-8.61
-10.02
-11.69
-13.54
-15.40
-17.14
-18.73
-20.28
-21.98
-24.01
-26.45
-29.38
-32.78
-36.57
-40.47
-44.02
-46.50
-47.22
-45.70
-41.88
-36.18
-29.35
-22.23
-15.47
-9.51
-4.41
-0.10
3.58
6.73
9.37
11.50
13.13
14.31
15.14
15.72
16.11
16.38
16.62
16.97
17.55
18.46
19.69
21.09
22.48
23.71
24.69
25.39
25.81
25.96
25.81
25.34
24.59
23.60
22.46
21.21
19.90
18.53
17.17
15.90
14.82
14.01
13.48
13.17
12.94
12.61
12.04
11.16
10.00
8.68
7.34
6.08
4.90
3.73
2.51
1.16
-0.32
-1.93
-3.68
-5.57
-7.60
-9.72
-11.87
-13.99
-16.10
-18.28
-20.61
-23.15
-25.89
-28.78
-31.80
-35.03
-38.64
-42.83
-47.67
-52.92
-58.01
-62.14
-64.44
-64.22
-61.19
-55.48
-47.66
-38.58
-29.19
-20.32
-12.59
-6.35
-1.66
1.59
3.68
4.92
5.70
6.33
7.07
8.03
9.20
10.46
11.81
13.36
15.42
18.32
22.26
27.11
32.44
37.70
42.41
46.35
49.49
51.95
53.75
54.87
55.22
54.87
54.01
52.90
51.74
50.48
48.88
46.67
43.74
40.25
36.63
33.29
30.47
28.14
26.01
23.84
21.53
19.21
17.14
15.58
14.53
13.74
12.83
11.44
9.38
6.69
3.62
0.50
-2.44
-5.07
-7.45
-9.75
-12.22
-15.01
-18.17
-21.62
-25.14
-28.54
-31.69
-34.64
-37.56
-40.75
-44.53
-49.20
-54.92
-61.55
-68.55
-74.86
-79.07
-79.79
-76.13
-68.11
-56.69
-43.49
-30.27
-18.33
-8.29
-0.14
6.58
12.31
17.38
21.86
25.73
28.91
31.43
33.41
35.04
36.52
38.00
39.57
41.26
43.03
44.84
46.63
48.36
49.95
51.27
52.10
52.19
51.29
49.33
46.42
42.86
39.11
35.56
32.45
29.78
27.38
25.04
22.62
20.11
17.63
15.30
13.15
11.17
9.27
7.38
5.46
3.55
1.73
0.12
-1.20
-2.16
-2.76
-3.04
-3.12
-3.16
-3.35
-3.83
-4.71
-5.94
-7.46
-9.11
-10.76
-12.33
-13.77
-15.08
-16.37
-17.77
-19.49
-21.73
-24.67
-28.36
-32.77
-37.85
-43.49
-49.65
-56.13
-62.52
-68.05
-71.71
-72.54
-69.90
-63.76
-54.65
-43.43
-31.13
-18.70
-6.91
3.58
12.31
19.01
23.68
26.59
28.26
29.24
29.98
30.62
31.09
31.22
30.90
30.25
29.63
29.51
30.26
31.96
34.43
37.26
40.02
42.38
44.20
45.44
46.13
46.33
46.13
45.63
44.94
44.05
42.88
41.25
39.03
36.29
33.23
30.17
27.38
24.97
22.86
20.85
18.80
16.68
14.61
12.76
11.22
9.98
8.87
7.67
6.20
4.36
2.15
-0.35
-3.02
-5.70
-8.31
-10.81
-13.25
-15.81
-18.65
-21.91
-25.55
-29.40
-33.28
-37.06
-40.72
-44.36
-48.15
-52.24
-56.85
-62.23
-68.56
-75.70
-83.01
-89.27
-92.84
-92.21
-86.48
-75.80
-61.32
-44.80
-28.06
-12.51
1.01
12.20
21.02
27.62
32.23
35.22
37.10
38.41
39.54
40.63
41.56
42.07
41.97
41.29
40.35
39.57
39.34
39.88
41.16
43.00
45.12
47.19
48.94
50.18
50.79
50.78
50.19
49.14
47.74
46.02
44.01
41.72
39.16
36.40
33.57
30.78
28.12
25.60
23.17
20.79
18.46
16.20
14.07
12.07
10.14
8.19
6.17
4.08
2.02
0.06
-1.73
-3.44
-5.24
-7.23
-9.42
-11.69
-13.88
-15.93
-17.97
-20.23
-22.97
-26.26
-30.03
-34.03
-38.07
-42.02
-45.86
-49.68
-53.63
-57.95
-62.94
-68.85
-75.71
-83.01
-89.67
-94.16
-94.85
-90.64
-81.27
-67.56
-51.12
-33.98
-17.95
-4.29
6.44
14.33
19.80
23.37
25.43
26.31
26.29
25.72
25.00
24.48
24.42
24.90
25.90
27.38
29.30
31.62
34.27
37.07
39.82
42.29
44.25
45.60
46.23
46.09
45.09
43.16
40.30
36.61
32.43
28.34
25.10
23.47
23.87
26.18
29.70
33.35
36.06
37.22
36.78
35.14
32.85
30.29
27.61
24.78
21.78
18.67
15.70
13.05
10.76
8.72
6.72
4.53
2.05
-0.66
-3.39
-5.92
-8.10
-9.98
-11.76
-13.75
-16.26
-19.42
-23.15
-27.17
-31.14
-34.78
-37.94
-40.65
-43.13
-45.73
-48.90
-53.14
-58.77
-65.76
-73.53
-80.88
-86.20
-87.89
-84.79
-76.63
-64.05
-48.51
-31.83
-15.68
-1.36
10.45
19.53
26.08
30.47
33.19
34.78
35.73
36.42
37.05
37.66
38.10
38.22
37.93
37.30
36.60
36.11
36.16
36.83
38.07
39.60
41.07
42.20
42.81
42.89
42.56
41.97
41.26
40.45
39.48
38.24
36.64
34.64
32.34
29.89
27.48
25.25
23.19
21.25
19.36
17.50
15.74
14.17
12.84
11.70
10.62
9.47
8.21
6.89
5.67
4.68
3.99
3.54
3.19
2.77
2.13
1.17
-0.12
-1.69
-3.43
-5.23
-7.01
-8.74
-10.49
-12.36
-14.45
-16.81
-19.43
-22.28
-25.28
-28.39
-31.62
-35.11
-39.22
-44.43
-51.17
-59.49
-68.73
-77.46
-83.76
-85.82
-82.57
-74.08
-61.49
-46.64
-31.39
-17.18
-4.88
5.17
12.92
18.57
22.51
25.38
27.89
30.61
33.74
37.03
39.94
42.01
43.06
43.40
43.60
44.27
45.73
47.93
50.70
53.80
57.15
60.74
64.41
67.72
69.98
70.51
68.82
64.81
58.64
50.41
40.08
27.54
12.85
-3.36
-19.87
-35.18
-48.07
-58.08
-65.59
-71.53
-76.86
-82.11
-87.25
-91.83
-95.28
-97.11
-96.89
-94.21
-88.66
-79.97
-68.31
-54.42
-39.63
-25.44
-13.12
-3.34
3.89
8.96
12.29
14.00
13.98
12.03
8.18
2.87
-3.17
-9.18
-14.62
-19.37
-23.67
-27.95
-32.69
-38.13
-44.35
-51.24
-58.46
-65.39
-71.06
-74.26
-73.79
-68.85
-59.42
-46.39
-31.39
-16.27
-2.64
8.52
16.96
22.93
26.87
29.26
30.46
30.81
30.59
30.03
29.31
28.50
27.64
26.85
26.35
26.44
27.28
28.88
30.95
33.10
34.97
36.33
37.09
37.26
36.84
35.87
34.47
32.80
31.08
29.34
27.41
24.94
21.68
17.64
13.23
9.06
5.63
3.08
1.05
-1.05
-3.77
-7.32
-11.52
-15.81
-19.55
-22.18
-23.32
-22.84
-20.87
-17.75
-14.05
-10.49
-7.75
-6.40
-6.61
-8.16
-10.64
-13.62
-16.97
-20.90
-25.88
-32.40
-40.74
-50.77
-61.84
-72.82
-82.19
-88.27
-89.61
-85.36
-75.71
-61.90
-46.02
-30.40
-16.99
-6.84
-0.01
4.18
6.65
8.05
8.52
7.69
5.02
0.25
-6.24
-13.53
-20.42
-26.04
-30.22
-33.47
-36.60
-40.06
-43.70
-46.96
-49.45
-51.28
-53.01
-55.13
-57.44
-59.21
-59.76
-59.46
-60.01
-63.81
-72.71
-86.76
-103.96
-121.12
-135.44
-145.65
-151.87
-154.49
-152.56
-143.11
-121.99
-85.77
-34.06
29.50
97.79
162.33
215.83
254.13
276.70
285.71
284.45
276.05
262.77
246.22
227.71
208.34
188.91
169.53
149.72
128.60
105.42
80.07
53.39
27.22
4.13
-13.18
-22.63
-23.52
-16.92
-5.28
8.42
21.67
33.54
44.84
57.32
72.47
90.18
109.04
127.23
143.43
157.14
168.71
178.83
187.83
195.44
200.63
202.62
201.47
198.18
193.48
187.89
181.63
174.53
166.45
156.69
145.24
133.28
122.95
114.87
109.53
107.53
109.29
115.20
122.79
129.53
134.31
137.47
136.83
131.29
122.23
113.31
109.87
111.38
114.97
117.09
113.75
95.94
57.35
-1.76
-74.53
-149.01
-221.17
-290.03
-355.62
-418.92
-487.94
-568.41
-659.43
-753.89
-839.57
-914.61
-979.32
-1032.21
-1022.89
-920.87
-736.61
-517.20
-338.74
-204.05
-104.29
-30.09
31.99
87.97
133.71
164.12
178.10
179.91
179.37
176.45
168.29
152.27
126.43
86.31
32.93
-23.92
-67.85
-80.34
-56.87
-2.87
70.13
148.26
217.03
267.85
299.96
318.17
329.95
336.57
337.30
332.13
322.33
308.80
292.66
275.21
257.87
242.57
228.76
215.38
201.55
186.19
167.98
146.63
123.50
101.22
82.50
67.66
55.23
43.25
30.55
17.56
5.76
-3.69
-11.05
-18.25
-27.90
-41.81
-59.70
-79.58
-99.08
-116.70
-132.39
-146.85
-160.86
-174.62
-187.54
-197.99
-204.24
-205.58
-202.86
-198.06
-193.27
-190.07
-189.06
-189.69
-189.30
-184.47
-172.77
-154.02
-130.57
-105.70
-82.63
-63.48
-48.43
-34.45
-17.31
5.97
35.53
68.93
103.53
137.40
169.75
192.44
198.16
185.62
161.24
133.75
108.42
87.24
70.38
57.35
47.71
41.97
40.30
41.24
44.45
45.58
42.27
34.64
23.92
11.43
-1.24
-12.99
-23.70
-33.85
-43.63
-52.00
-56.61
-57.30
-54.08
-47.02
-36.15
-21.72
-4.40
14.88
34.35
52.43
66.73
75.71
80.75
86.21
97.22
117.10
146.33
180.67
214.28
239.62
249.98
241.56
213.76
167.78
105.40
29.29
-63.00
-159.96
-243.43
-299.60
-323.66
-316.73
-282.78
-235.96
-179.53
-118.79
-59.47
-8.05
30.39
54.15
63.44
58.51
43.22
26.28
14.96
13.56
20.99
32.71
44.26
53.25
59.49
63.80
68.12
72.29
75.90
78.05
78.09
75.95
72.14
67.19
60.89
53.40
43.96
32.07
17.56
0.75
-17.59
-36.44
-51.72
-63.35
-71.50
-76.91
-80.31
-82.19
-82.79
-82.15
-80.20
-77.21
-73.93
-70.69
-67.82
-65.54
-63.79
-62.32
-60.86
-59.18
-57.48
-56.40
-56.19
-56.82
-58.04
-59.39
-60.48
-61.13
-61.29
-61.55
-62.71
-64.93
-67.82
-70.48
-71.76
-70.78
-68.43
-64.11
-58.68
-53.42
-49.11
-45.86
-43.01
-39.72
-35.41
-30.23
-24.80
-20.58
-19.01
-21.18
-27.78
-38.95
-53.76
-69.79
-82.96
-88.13
-81.53
-62.44
-34.10
-2.95
23.81
40.87
46.49
42.28
32.17
19.47
5.88
-8.34
-23.40
-39.03
-54.13
-67.39
-78.18
-86.28
-92.60
-98.29
-104.02
-109.42
-113.10
-112.98
-106.60
-95.87
-81.89
-66.29
-50.70
-36.34
-23.75
-12.79
-2.95
6.19
14.65
22.53
29.42
34.74
38.12
39.62
39.75
39.39
39.43
40.44
42.93
46.71
51.14
55.40
58.91
61.57
63.78
66.24
69.53
74.12
79.84
86.20
92.75
99.45
106.79
115.45
125.78
137.35
149.01
158.93
165.10
165.87
160.36
148.70
132.21
113.41
95.88
83.88
81.33
90.55
111.06
139.01
167.90
190.40
200.80
196.93
180.80
157.35
132.16
109.12
89.28
71.34
53.31
34.28
15.13
-2.15
-15.74
-25.14
-31.24
-35.48
-38.75
-40.81
-40.55
-36.93
-29.76
-20.08
-9.68
-0.38
6.61
10.97
13.19
14.20
15.04
16.50
18.79
21.46
23.54
23.87
21.66
16.89
10.27
2.90
-4.27
-10.91
-17.40
-24.63
-33.66
-45.33
-60.01
-77.40
-96.36
-114.83
-130.19
-139.74
-141.52
-134.80
-120.33
-99.90
-75.82
-50.35
-25.48
-2.91
15.98
30.36
40.09
45.82
48.56
49.02
47.16
42.17
33.18
20.18
4.60
-11.03
-23.98
-32.48
-36.26
-36.43
-34.59
-31.96
-29.07
-25.82
-21.99
-17.55
-12.71
-7.67
-2.35
3.68
10.96
19.73
29.56
39.31
47.41
52.42
53.70
51.71
47.78
43.41
39.28
34.87
28.75
19.58
7.14
-7.13
-20.61
-30.70
-35.91
-36.42
-33.60
-29.19
-24.43
-19.95
-16.04
-13.09
-11.78
-12.79
-16.43
-22.30
-29.50
-36.92
-43.73
-49.64
-54.97
-60.45
-66.96
-75.21
-85.40
-96.95
-108.51
-118.04
-123.44
-123.03
-116.09
-103.02
-85.21
-64.61
-43.30
-23.05
-5.06
10.23
22.95
33.67
43.07
51.66
59.69
67.14
73.84
79.55
84.07
87.17
88.65
88.48
86.90
84.55
82.29
80.95
81.00
82.37
84.49
86.63
88.10
88.47
87.57
85.35
81.83
77.12
71.45
65.21
58.87
52.80
47.20
42.12
37.59
33.68
30.55
28.25
26.72
25.65
24.62
23.19
21.03
17.93
13.93
9.32
4.55
0.15
-3.52
-6.44
-8.93
-11.45
-14.30
-17.41
-20.36
-22.73
-24.43
-25.76
-27.36
-29.70
-32.92
-36.75
-40.72
-44.47
-47.92
-51.18
-54.44
-57.82
-61.42
-65.48
-70.36
-76.43
-83.73
-91.56
-98.50
-102.68
-102.43
-96.88
-86.25
-71.81
-55.30
-38.48
-22.73
-8.88
2.64
11.66
18.29
22.84
25.90
28.14
30.18
32.38
34.81
37.28
39.47
41.06
41.84
41.76
40.98
39.81
38.69
37.98
37.90
38.38
39.13
39.78
40.01
39.63
38.65
37.12
35.15
32.88
30.46
28.11
25.96
24.03
22.15
20.04
17.45
14.30
10.78
7.28
4.20
1.79
0.06
-1.18
-2.21
-3.26
-4.44
-5.78
-7.29
-8.99
-10.90
-13.06
-15.43
-17.95
-20.54
-23.14
-25.75
-28.33
-30.86
-33.25
-35.46
-37.49
-39.45
-41.56
-44.13
-47.44
-51.58
-56.45
-61.71
-66.83
-71.35
-75.01
-77.83
-80.18
-82.60
-85.68
-89.85
-95.07
-100.80
-105.80
-108.44
-106.97
-100.02
-86.98
-68.15
-44.70
-18.39
8.76
34.73
57.80
76.76
91.04
100.77
106.65
109.70
110.97
111.20
110.74
109.54
107.37
104.00
99.46
94.04
88.30
82.86
78.19
74.48
71.58
69.01
66.19
62.55
57.76
51.78
45.01
38.12
31.88
26.84
23.14
20.46
18.22
15.90
13.28
10.50
7.85
5.68
4.08
3.00
2.21
1.46
0.63
-0.29
-1.11
-1.59
-1.53
-0.86
0.24
1.47
2.54
3.36
4.08
5.03
6.46
8.39
10.63
12.89
14.96
16.83
18.53
19.96
20.82
20.68
19.27
16.65
13.28
9.71
6.18
2.49
-2.03
-8.02
-15.74
-24.76
-34.16
-42.96
-50.66
-57.39
-63.72
-70.22
-76.90
-83.02
-87.26
-88.29
-85.34
-78.60
-69.20
-58.77
-48.88
-40.48
-33.82
-28.58
-24.24
-20.43
-16.92
-13.55
-10.11
-6.46
-2.85
-0.15
0.24
-2.89
-9.82
-19.35
-28.99
-35.87
-37.83
-34.19
-25.85
-14.61
-2.42
9.13
18.87
25.86
29.33
28.94
25.21
19.66
14.48
11.75
12.56
16.64
22.43
27.77
30.77
30.42
26.85
21.20
14.98
9.48
5.25
1.94
-1.35
-5.58
-11.13
-17.53
-23.58
-27.59
-28.04
-24.04
-15.84
-5.15
5.01
10.90
9.16
-2.06
-22.42
-49.66
-80.57
-112.25
-142.76
-171.13
-196.73
-218.62
-235.43
-245.70
-248.60
-244.40
-234.49
-220.87
-205.60
-190.17
-175.32
-161.08
-147.03
-132.58
-117.28
-100.89
-83.36
-64.66
-44.61
-22.94
0.51
25.49
51.08
75.74
97.62
115.08
127.18
134.02
136.64
136.57
135.29
133.66
131.74
128.96
124.57
118.13
109.78
100.27
90.65
82.03
75.28
70.81
68.60
68.25
69.14
70.69
72.50
74.48
76.63
78.84
80.70
81.61
80.97
78.55
74.63
69.97
65.37
61.41
58.23
55.49
52.72
49.53
45.86
41.97
38.28
35.26
33.16
31.94
31.23
30.55
29.47
27.99
26.40
25.27
24.98
25.51
26.51
27.51
28.22
28.74
29.36
30.13
30.61
30.00
27.50
22.88
16.56
9.38
1.95
-5.65
-13.91
-23.32
-33.91
-45.03
-55.69
-65.15
-73.34
-80.80
-88.21
-95.81
-103.10
-109.13
-113.12
-115.06
-115.80
-116.44
-117.37
-117.56
-114.52
-105.30
-87.93
-62.69
-32.30
-1.02
26.99
49.06
64.59
74.49
80.21
82.82
82.80
80.38
75.98
70.47
64.90
60.07
56.27
53.33
50.84
48.53
46.44
44.84
44.06
44.29
45.49
47.33
49.22
50.44
50.29
48.42
45.11
41.42
38.92
39.18
43.13
50.58
60.38
70.99
81.27
90.83
99.92
108.79
117.17
124.13
128.59
130.00
128.63
125.28
120.56
114.36
105.96
94.78
81.11
66.49
53.21
43.37
38.01
36.87
38.67
41.62
43.82
43.40
38.46
27.46
9.76
-13.88
-41.34
-69.75
-96.57
-120.44
-141.37
-160.18
-177.69
-194.02
-208.52
-220.21
-228.47
-233.38
-235.74
-236.57
-236.73
-236.58
-236.04
-234.70
-232.01
-227.41
-220.35
-210.33
-197.06
-180.58
-161.27
-139.90
-117.40
-94.59
-72.04
-50.03
-28.68
-8.04
11.81
30.82
49.04
66.71
84.18
101.78
119.49
136.70
151.99
163.34
168.70
166.70
157.32
141.94
122.85
102.26
81.38
60.08
37.37
12.53
-13.93
-40.00
-62.84
-80.03
-90.61
-95.54
-97.01
-97.39
-98.06
-98.95
-98.80
-95.96
-89.28
-78.73
-65.32
-50.68
-36.43
-23.63
-12.57
-2.96
5.74
13.90
21.50
28.10
33.18
36.44
38.01
38.55
38.99
40.20
42.71
46.48
50.98
55.48
59.37
62.43
64.78
66.73
68.41
69.62
69.87
68.63
65.65
61.00
54.93
47.62
39.06
29.28
18.62
7.83
-2.28
-11.37
-20.01
-29.43
-40.79
-54.24
-68.49
-81.09
-89.45
-91.88
-88.17
-79.43
-67.37
-53.65
-39.62
-26.36
-14.94
-6.30
-1.03
0.95
0.46
-1.24
-2.89
-3.64
-3.31
-2.21
-0.95
-0.13
-0.12
-0.96
-2.31
-3.41
-3.30
-1.06
3.84
11.22
20.26
29.86
39.05
47.45
55.22
62.79
70.36
77.63
83.90
88.43
90.90
91.68
91.59
91.51
91.85
92.41
92.58
91.74
89.77
86.98
83.98
81.25
78.84
76.41
73.34
69.11
63.36
55.94
46.85
36.16
24.21
11.56
-0.92
-12.35
-22.06
-29.90
-36.24
-41.81
-47.31
-53.19
-59.47
-65.79
-71.66
-76.65
-80.63
-83.83
-86.87
-90.59
-95.82
-103.09
-112.30
-122.53
-132.20
-139.41
-142.48
-140.56
-133.85
-123.45
-110.83
-97.22
-83.13
-68.33
-52.14
-33.94
-13.62
8.41
31.28
54.06
75.85
95.97
113.84
128.84
140.31
147.62
150.38
148.65
143.10
134.94
125.65
116.59
108.61
101.80
95.60
89.11
81.63
73.05
63.94
55.30
48.07
42.73
39.08
36.32
33.48
29.85
25.19
19.70
13.63
7.00
-0.50
-9.28
-19.53
-30.87
-42.45
-53.24
-62.48
-69.97
-76.03
-81.21
-85.88
-90.03
-93.32
-95.41
-96.17
-95.85
-94.92
-93.90
-93.21
-93.00
-93.21
-93.63
-93.94
-93.94
-93.48
-92.63
-91.57
-90.55
-89.73
-89.02
-88.03
-86.05
-82.17
-75.48
-65.44
-52.12
-36.42
-19.94
-4.58
7.94
16.63
21.38
22.78
21.69
18.91
14.92
9.93
4.11
-2.19
-8.29
-13.30
-16.23
-16.30
-13.05
-6.38
3.56
16.36
31.29
47.09
62.01
74.05
81.52
83.64
80.89
74.93
68.00
62.12
58.65
58.19
60.84
66.50
74.99
85.87
98.18
110.45
120.90
127.98
130.78
129.22
123.86
115.55
105.06
92.85
79.22
64.64
50.05
37.06
27.61
23.41
25.05
31.54
40.32
48.11
52.11
51.06
45.67
38.08
30.86
25.86
23.62
23.59
24.67
26.08
27.70
29.88
32.88
36.25
38.78
38.85
35.45
28.95
21.42
16.04
15.83
22.18
34.07
48.33
60.93
68.66
70.38
67.06
60.86
53.76
46.61
39.02
30.09
19.30
6.97
-5.87
-18.21
-29.66
-40.72
-52.43
-65.77
-81.13
-98.07
-115.46
-131.83
-145.72
-156.03
-162.14
-164.03
-162.18
-157.35
-150.19
-141.03
-129.85
-116.50
-101.20
-84.78
-68.73
-54.75
-44.21
-37.70
-34.90
-34.88
-36.54
-39.04
-41.97
-45.19
-48.57
-51.73
-54.28
-56.09
-57.67
-60.06
-64.19
-69.98
-75.82
-78.84
-76.05
-65.75
-48.62
-27.59
-6.68
10.69
22.88
30.45
35.39
40.04
46.05
53.82
62.64
71.12
77.69
81.29
81.74
79.78
76.78
74.08
72.36
71.61
71.33
71.13
70.97
70.99
71.16
70.91
69.26
65.44
59.36
51.96
44.69
38.87
35.00
32.64
30.86
28.91
26.62
24.37
22.61
21.27
19.62
16.39
10.47
1.53
-9.74
-21.87
-33.28
-43.08
-51.42
-59.28
-67.80
-77.66
-88.59
-99.57
-109.21
-116.19
-119.51
-118.38
-112.22
-100.59
-83.49
-61.68
-36.79
-11.18
12.63
32.64
47.77
58.02
64.23
67.61
69.36
70.41
71.29
72.19
72.91
73.06
72.21
70.20
67.28
64.16
61.70
60.52
60.69
61.66
62.56
62.70
61.88
60.43
58.94
57.87
57.22
56.58
55.35
53.12
49.85
45.85
41.57
37.35
33.26
29.12
24.77
20.19
15.63
11.49
8.11
5.64
3.88
2.43
0.82
-1.30
-4.08
-7.50
-11.39
-15.55
-19.71
-23.56
-26.86
-29.55
-31.77
-33.88
-36.18
-38.73
-41.22
-43.03
-43.65
-42.95
-41.35
-39.60
-38.44
-38.17
-38.46
-38.56
-37.65
-35.21
-31.29
-26.41
-21.49
-17.63
-15.97
-17.42
-22.29
-30.00
-38.94
-46.82
-51.35
-51.06
-45.88
-37.05
-26.65
-16.61
-8.09
-1.21
4.59
10.00
15.28
20.17
24.07
26.34
26.59
24.70
20.72
14.84
7.35
-1.23
-10.15
-18.40
-25.08
-29.58
-31.82
-32.21
-31.49
-30.51
-29.99
-30.44
-32.15
-35.18
-39.36
-44.43
-50.07
-55.99
-61.91
-67.34
-71.47
-73.12
-71.07
-64.66
-54.29
-41.53
-28.72
-18.04
-10.71
-6.63
-4.73
-3.70
-2.76
-1.92
-1.72
-2.73
-5.15
-8.80
-13.44
-18.99
-25.56
-33.24
-41.73
-50.20
-57.41
-62.13
-63.61
-61.94
-57.95
-52.97
-48.38
-45.29
-44.48
-46.27
-50.50
-56.49
-63.08
-68.96
-73.27
-76.07
-78.47
-81.95
-87.27
-93.37
-97.32
-95.46
-85.22
-66.67
-42.61
-17.13
6.64
28.31
50.40
76.93
111.48
155.48
207.79
265.31
323.97
379.62
428.13
465.40
487.35
490.41
472.17
432.19
372.48
297.22
211.82
121.46
29.93
-60.19
-146.22
-223.70
-286.05
-326.55
-341.74
-334.32
-313.15
-289.63
-272.24
-262.41
-254.21
-238.11
-206.31
-156.73
-93.28
-23.16
46.66
111.48
168.35
214.76
247.58
263.89
262.50
245.40
217.54
185.25
154.22
128.16
108.58
95.40
87.72
84.27
83.46
83.39
81.97
77.28
67.91
53.21
33.19
8.50
-19.55
-48.84
-76.60
-99.91
-116.58
-126.07
-129.77
-130.46
-131.16
-133.90
-138.94
-144.73
-148.65
-148.08
-141.37
-128.28
-110.02
-88.90
-67.93
-50.28
-38.75
-35.18
-39.64
-50.02
-62.15
-70.83
-71.45
-61.67
-42.22
-16.67
10.06
33.46
50.84
61.76
67.41
69.53
69.44
67.79
64.76
60.63
56.09
51.97
48.90
46.82
44.91
42.00
37.14
30.14
21.72
13.26
6.06
0.70
-3.38
-7.59
-13.45
-21.79
-32.32
-43.78
-54.69
-64.03
-71.55
-77.51
-82.37
-86.38
-89.63
-92.19
-94.11
-95.07
-94.13
-89.76
-80.79
-67.49
-52.35
-39.56
-33.17
-34.91
-42.81
-51.89
-56.39
-52.32
-39.50
-21.28
-2.74
11.37
17.67
14.01
-1.05
-27.94
-65.17
-109.04
-154.13
-194.99
-227.83
-251.45
-266.59
-274.42
-274.88
-265.85
-244.85
-210.96
-166.12
-114.91
-63.09
-15.82
23.53
54.40
80.00
104.41
130.25
157.11
182.21
201.88
213.07
213.70
202.85
182.90
155.76
122.66
85.65
49.72
22.95
13.87
27.63
65.09
127.04
209.11
301.20
388.78
457.30
497.24
507.52
495.67
476.67
472.84
499.39
557.89
636.21
715.63
779.01
815.84
822.22
760.57
616.79
407.26
174.17
-39.28
-209.17
-332.49
-414.08
-470.41
-511.22
-534.43
-537.02
-519.93
-489.32
-451.28
-410.81
-371.08
-334.74
-302.34
-269.25
-231.88
-189.98
-147.42
-110.31
-84.04
-72.27
-76.81
-95.63
-121.07
-144.84
-160.54
-165.18
-158.57
-139.24
-106.40
-63.07
-15.58
29.72
67.55
94.98
114.08
126.16
133.30
138.17
143.27
150.48
160.97
172.44
182.28
187.91
187.58
181.33
169.87
153.41
131.36
102.33
65.05
19.31
-33.46
-90.13
-145.33
-192.47
-225.07
-238.36
-230.82
-205.13
-167.40
-125.62
-87.30
-57.19
-36.80
-25.24
-20.63
-21.11
-25.25
-31.48
-37.72
-41.44
-40.17
-32.73
-20.02
-4.97
8.74
18.29
23.01
24.16
23.84
23.45
22.89
20.84
16.01
8.31
-0.81
-9.15
-15.17
-18.81
-21.37
-24.75
-30.27
-38.21
-47.88
-58.20
-68.35
-78.04
-87.33
-96.39
-105.33
-114.16
-122.82
-131.09
-138.40
-143.84
-146.42
-145.10
-139.14
-128.27
-112.86
-93.89
-72.85
-51.48
-31.66
-15.42
-4.12
1.72
2.36
-1.57
-9.55
-21.32
-36.68
-55.34
-77.14
-100.63
-123.11
-141.07
-151.41
-152.74
-145.80
-133.04
-117.89
-104.62
-95.53
-90.87
-89.30
-89.26
-90.21
-92.46
-96.13
-100.85
-106.80
-112.49
-115.66
-113.78
-104.95
-88.65
-65.06
-34.26
10.74
69.88
136.63
200.16
251.34
288.59
314.56
330.71
337.60
336.13
322.57
297.36
263.77
226.62
190.44
158.06
130.60
108.28
90.86
76.84
65.53
56.51
49.35
43.29
37.30
30.35
21.96
12.41
1.93
-7.97
-15.38
-18.71
-17.54
-12.85
-6.94
-2.75
-2.75
-8.54
-20.00
-34.98
-50.45
-66.77
-85.39
-105.97
-127.81
-149.17
-167.65
-180.39
-184.93
-180.01
-165.91
-143.80
-115.63
-84.06
-51.63
-20.56
7.49
31.25
49.75
62.25
68.78
69.98
66.75
60.34
52.06
43.01
33.80
24.44
14.47
3.58
-8.16
-20.12
-30.93
-38.84
-42.33
-40.83
-35.11
-26.98
-18.26
-9.85
-1.12
9.90
25.66
47.61
75.08
105.32
134.40
158.83
176.78
188.24
194.01
194.90
191.02
182.02
168.08
150.75
132.97
118.20
109.14
106.32
108.35
112.73
116.80
118.71
117.66
113.13
104.12
89.11
66.25
35.50
-0.12
-35.07
-63.23
-80.89
-89.35
-93.78
-101.97
-121.53
-153.90
-192.75
-227.93
-251.20
-259.49
-254.60
-245.46
-234.23
-220.76
-204.23
-185.02
-165.58
-149.58
-140.03
-137.86
-139.18
-139.15
-134.16
-122.61
-105.31
-84.67
-63.11
-41.79
-20.44
1.70
24.79
47.26
66.64
80.83
89.04
92.09
91.73
89.50
85.98
80.81
73.13
62.87
51.32
40.69
33.22
30.23
31.83
37.49
46.99
61.07
81.49
110.08
147.50
192.28
240.91
288.82
331.76
366.50
390.72
402.35
399.38
380.58
347.06
303.37
256.98
215.97
185.60
166.14
152.86
138.49
116.87
85.53
46.10
2.62
-40.89
-82.20
-120.98
-157.77
-192.60
-224.43
-251.45
-272.07
-285.78
-293.55
-297.38
-299.60
-301.88
-304.72
-307.31
-307.99
-305.13
-297.81
-286.21
-271.49
-255.19
-238.57
-222.16
-205.75
-188.65
-170.20
-149.98
-128.00
-104.35
-78.93
-51.38
-21.30
11.13
44.69
76.96
104.88
125.67
137.84
141.70
139.42
134.31
129.89
129.17
133.94
144.55
159.70
176.54
191.18
199.69
199.19
188.77
169.91
145.94
121.07
99.20
83.09
73.67
69.91
69.19
68.25
64.86
59.49
56.09
60.99
80.21
115.78
163.43
212.93
251.32
267.33
255.12
215.89
156.93
89.24
24.90
-25.21
-52.96
-54.37
-30.67
11.50
61.44
107.16
138.59
150.16
141.45
115.91
78.90
36.27
-6.47
-44.32
-73.44
-92.17
-102.06
-107.77
-115.60
-131.03
-156.29
-189.52
-225.78
-259.32
-285.79
-303.35
-312.67
-315.97
-316.15
-316.04
-317.91
-323.14
-331.58
-341.61
-350.45
-355.10
-353.25
-343.88
-326.93
-302.76
-271.44
-232.61
-185.85
-131.24
-69.87
-3.93
63.56
129.28
190.21
244.30
290.75
329.94
363.07
391.66
416.89
438.94
456.59
467.15
466.88
452.13
420.66
372.70
311.20
241.19
168.51
98.37
34.31
-22.03
-70.37
-111.02
-144.09
-169.05
-184.84
-190.49
-186.02
-173.20
-155.65
-138.12
-125.17
-119.61
-121.53
-128.45
-136.18
-140.43
-138.26
-129.21
-115.54
-101.26
-90.38
-84.88
-83.70
-82.77
-76.77
-61.72
-36.95
-5.53
27.42
56.90
79.86
95.08
102.83
104.00
99.90
92.56
84.69
79.00
76.67
76.51
74.55
67.29
53.80
36.40
18.91
4.05
-7.61
-17.49
-26.59
-36.06
-44.89
-51.11
-54.00
-55.90
-61.65
-75.23
-97.90
-126.67
-159.93
-196.01
-234.09
-273.70
-314.87
-357.66
-400.61
-442.07
-479.46
-514.61
-548.51
-579.76
-603.68
-614.77
-609.38
-585.93
-546.98
-469.79
-348.63
-197.39
-45.06
82.41
175.51
236.12
282.13
324.71
366.24
398.67
414.24
408.02
383.74
350.94
320.10
299.87
293.82
302.91
322.83
348.36
373.84
393.51
400.87
390.20
360.41
315.56
265.36
219.03
183.23
159.89
146.89
139.46
132.52
123.33
111.19
97.62
83.87
71.38
62.18
59.26
65.44
81.84
106.61
134.40
158.14
170.96
168.68
150.88
120.49
81.79
38.88
-4.73
-45.65
-79.82
-102.74
-111.04
-104.11
-84.84
-58.74
-31.77
-8.29
9.93
23.36
33.45
41.40
47.84
53.18
58.07
63.35
69.37
75.35
79.13
78.00
69.78
53.83
31.19
4.09
-24.76
-52.79
-77.89
-98.20
-112.14
-118.61
-117.39
-109.47
-97.17
-83.77
-72.63
-66.42
-66.41
-72.28
-82.47
-94.71
-106.87
-117.59
-126.58
-134.53
-142.61
-151.73
-161.88
-172.01
-180.43
-185.64
-187.07
-185.34
-181.83
-177.82
-173.79
-169.30
-163.52
-155.74
-145.15
-130.24
-108.53
-77.40
-36.09
12.65
62.20
104.15
131.57
141.97
137.91
125.33
110.47
97.41
87.43
80.14
74.98
72.01
71.52
73.05
74.95
74.87
70.89
62.52
50.95
38.51
27.84
20.87
18.29
19.41
22.57
25.82
27.56
27.14
24.90
21.67
18.07
14.06
8.97
2.05
-6.67
-15.88
-23.22
-26.14
-23.01
-13.85
-0.32
15.01
29.62
41.83
51.02
57.41
61.52
63.82
64.57
63.92
62.09
59.45
56.30
52.74
48.52
43.23
36.58
28.75
20.43
12.56
5.85
0.34
-4.68
-10.25
-17.12
-25.29
-33.95
-41.96
-48.48
-53.37
-57.21
-60.85
-64.99
-69.98
-75.91
-82.87
-91.12
-101.04
-112.70
-125.60
-138.38
-149.20
-156.19
-158.01
-154.22
-145.16
-131.70
-114.87
-95.67
-75.04
-53.99
-33.58
-14.85
1.42
14.99
26.10
35.48
43.97
52.23
60.53
68.64
76.05
82.28
87.19
91.20
95.11
99.71
105.35
111.62
117.47
121.63
123.10
121.57
117.32
110.98
103.18
94.26
84.13
72.26
57.89
40.25
18.98
-5.40
-31.26
-55.92
-76.30
-89.77
-95.00
-92.20
-82.97
-69.58
-54.25
-38.73
-24.21
-11.49
-1.29
5.67
8.75
7.63
2.46
-6.21
-17.69
-31.49
-47.55
-66.25
-88.16
-113.70
-142.87
-175.06
-209.05
-243.13
-275.36
-304.08
-328.37
-348.35
-364.99
-379.44
-392.18
-402.54
-408.80
-409.02
-401.72
-386.25
-362.50
-330.18
-288.53
-236.67
-174.52
-103.72
-28.03
47.48
117.74
179.09
230.18
271.89
306.60
337.46
367.72
400.28
437.03
477.60
518.11
550.86
566.08
555.48
516.35
453.64
378.78
305.46
244.34
199.68
169.39
147.90
129.77
111.85
92.98
72.37
48.46
19.24
-16.08
-55.60
-94.77
-127.95
-150.71
-161.65
-162.65
-157.89
-152.16
-149.10
-150.21
-154.65
-159.65
-161.53
-156.91
-143.71
-121.77
-92.78
-59.73
-26.05
5.23
32.02
53.46
69.83
82.30
92.40
101.45
110.13
118.34
125.47
130.92
134.48
136.43
137.35
137.70
137.60
136.92
135.42
133.02
129.82
126.04
121.89
117.44
112.69
107.62
102.34
97.02
91.81
86.71
81.56
76.06
69.99
63.37
56.59
50.38
45.68
43.36
44.07
48.08
55.29
65.30
77.42
90.74
104.14
116.47
126.70
134.08
138.27
139.19
136.97
131.76
123.73
113.10
100.33
86.20
71.71
57.94
45.68
35.36
26.84
19.56
12.68
5.38
-3.01
-12.83
-24.12
-36.74
-50.47
-65.10
-80.34
-95.77
-110.74
-124.44
-136.18
-145.67
-153.23
-159.65
-165.79
-172.04
-177.95
-182.25
-183.38
-180.12
-172.09
-159.80
-144.37
-127.03
-108.98
-91.42
-75.71
-63.40
-55.81
-53.39
-55.24
-59.28
-62.98
-64.43
-63.11
-60.07
-57.36
-57.02
-60.22
-66.76
-75.14
-83.24
-89.11
-91.75
-91.45
-89.64
-88.36
-89.72
-95.43
-106.66
-123.68
-145.35
-168.51
-187.81
-196.88
-190.53
-167.37
-130.97
-88.59
-47.84
-13.11
16.51
46.23
82.43
129.39
187.67
254.75
326.52
398.54
465.95
522.99
563.19
580.72
572.26
538.18
482.39
410.82
329.99
246.28
166.02
95.44
39.94
2.98
-14.88
-16.22
-5.95
9.64
23.58
28.73
18.66
-10.48
-58.00
-117.78
-179.80
-233.57
-272.01
-293.70
-302.07
-302.48
-298.94
-292.24
-280.40
-260.67
-231.32
-192.31
-144.62
-89.29
-27.11
40.58
110.44
176.45
230.90
266.93
281.22
275.39
255.43
229.05
202.76
179.84
160.14
141.44
121.42
99.34
76.49
55.81
40.67
33.53
35.01
43.50
55.65
67.37
75.17
77.08
72.74
62.89
48.63
30.90
10.54
-11.40
-33.53
-54.20
-71.97
-85.95
-95.96
-102.41
-106.23
-108.59
-110.69
-113.51
-117.57
-122.82
-128.78
-134.82
-140.51
-145.68
-150.39
-154.59
-158.03
-160.26
-160.73
-158.91
-154.40
-146.91
-136.48
-123.58
-109.27
-95.08
-82.70
-73.54
-68.30
-66.94
-68.75
-72.66
-77.59
-82.68
-87.54
-92.38
-98.07
-105.96
-117.53
-133.64
-153.74
-175.31
-193.75
-203.20
-198.10
-175.28
-135.44
-83.54
-27.62
23.73
64.11
91.24
107.08
116.45
124.78
136.09
151.99
171.77
193.05
212.69
227.49
234.59
232.07
219.38
197.75
170.23
141.08
114.74
94.72
82.66
78.06
78.66
81.37
83.23
82.23
77.72
70.34
61.49
52.83
45.66
40.74
38.06
36.98
36.43
35.31
32.93
29.22
24.80
20.55
17.26
15.16
13.88
12.71
10.98
8.37
4.97
1.15
-2.57
-5.53
-6.98
-6.08
-2.23
4.58
13.47
22.61
29.83
33.28
32.17
26.93
18.94
9.87
1.02
-6.91
-13.73
-19.44
-24.05
-27.58
-30.26
-32.54
-35.03
-38.07
-41.57
-44.89
-47.19
-47.98
-47.41
-46.25
-45.54
-46.09
-48.15
-51.35
-54.99
-58.30
-60.77
-62.11
-62.33
-61.69
-60.74
-60.26
-61.16
-64.27
-69.95
-77.86
-86.88
-95.37
-101.69
-104.77
-104.44
-101.32
-96.42
-90.49
-83.69
-75.61
-65.65
-53.60
-39.98
-26.05
-13.41
-3.49
2.88
5.72
5.76
4.15
2.10
0.78
1.12
3.81
9.23
17.08
26.29
35.12
41.85
45.50
46.40
46.08
46.43
48.51
51.81
54.21
52.97
46.25
34.42
20.29
8.09
1.65
2.79
10.56
21.82
32.68
40.02
42.41
40.05
34.17
26.39
18.35
11.76
8.34
9.58
16.12
27.32
41.20
54.95
65.70
71.16
70.04
62.12
48.24
30.10
10.04
-9.44
-26.23
-39.22
-48.48
-55.07
-60.54
-66.27
-72.98
-80.38
-87.35
-92.23
-93.36
-89.59
-80.66
-67.15
-50.35
-31.98
-13.87
2.33
15.33
24.37
29.30
30.61
29.29
26.59
23.76
21.65
20.57
20.19
19.84
18.76
16.49
12.96
8.42
3.23
-2.40
-8.35
-14.54
-20.72
-26.45
-31.20
-34.56
-36.40
-36.75
-35.77
-33.56
-30.37
-26.66
-23.38
-21.82
-23.20
-28.08
-35.88
-44.91
-52.87
-57.82
-59.16
-58.04
-56.89
-58.21
-63.17
-70.78
-78.16
-81.86
-79.48
-70.85
-58.15
-45.08
-35.40
-31.90
-35.57
-45.44
-58.68
-71.37
-79.59
-81.19
-77.07
-71.34
-69.69
-76.91
-94.72
-121.27
-152.13
-182.07
-206.55
-222.26
-227.15
-220.54
-203.58
-179.59
-153.48
-130.01
-111.54
-96.71
-81.01
-59.07
-27.43
13.70
60.53
107.50
149.55
183.76
209.71
228.96
243.91
256.38
267.15
275.67
280.50
279.92
272.52
257.87
236.91
212.09
186.91
165.06
149.40
141.31
140.57
146.05
156.48
170.72
187.45
204.46
218.34
224.87
220.41
203.49
175.74
141.50
106.22
74.29
47.62
25.28
4.73
-16.42
-38.88
-61.43
-81.71
-98.02
-110.64
-122.05
-135.74
-154.25
-177.58
-202.78
-225.13
-240.07
-245.05
-240.34
-228.55
-213.32
-197.84
-183.99
-172.32
-162.63
-154.53
-147.76
-142.11
-137.25
-132.74
-128.31
-124.10
-120.61
-118.37
-117.44
-117.27
-116.85
-115.24
-112.04
-107.38
-101.60
-94.71
-86.31
-75.77
-62.92
-48.60
-34.74
-23.88
-18.17
-18.51
-24.13
-32.96
-42.43
-50.73
-57.39
-63.24
-69.60
-77.19
-85.51
-92.97
-97.78
-99.07
-97.48
-94.63
-92.17
-90.42
-87.95
-82.02
-69.69
-48.89
-18.81
20.05
65.96
115.76
164.53
205.39
230.57
233.56
212.14
170.48
119.17
72.57
44.40
43.60
72.14
125.45
194.81
270.20
342.23
403.14
447.08
470.64
473.40
458.21
430.41
396.17
360.25
324.91
290.08
254.83
218.85
183.01
149.09
118.83
93.32
73.04
58.18
48.79
44.45
43.73
44.00
41.94
34.69
21.02
1.83
-20.15
-41.40
-58.86
-70.79
-76.90
-78.08
-75.69
-71.03
-65.02
-58.07
-50.27
-41.59
-32.09
-22.10
-12.33
-3.69
2.89
6.60
6.96
3.89
-2.38
-11.31
-22.15
-34.03
-45.99
-57.06
-66.38
-73.30
-77.56
-79.32
-79.17
-77.92
-76.43
-75.39
-75.21
-76.00
-77.74
-80.31
-83.58
-87.40
-91.57
-95.91
-100.27
-104.54
-108.61
-112.32
-115.43
-117.82
-119.35
-119.85
-118.87
-115.56
-108.76
-97.61
-82.19
-63.75
-44.39
-26.20
-10.28
3.57
16.47
29.56
43.25
57.03
69.88
80.96
90.03
97.38
103.47
108.54
112.56
115.32
116.64
116.45
114.71
111.35
106.40
100.12
93.20
86.62
81.42
78.21
76.75
75.50
71.60
61.16
40.26
6.29
-40.85
-98.21
-160.44
-221.33
-275.58
-319.91
-353.31
-376.18
-389.21
-392.50
-385.45
-367.44
-338.77
-301.47
-259.43
-217.74
-181.53
-154.48
-137.71
-129.27
-124.52
-117.35
-101.93
-74.50
-34.75
13.72
64.19
108.61
139.95
154.41
152.36
137.99
117.58
97.43
82.08
73.68
71.95
74.89
79.46
82.38
80.91
73.56
60.57
43.79
26.01
10.19
-1.28
-6.85
-5.85
1.46
13.73
28.37
41.88
50.72
52.58
47.47
37.88
27.72
20.58
18.28
20.43
25.25
31.02
37.20
44.29
52.93
62.87
72.80
80.91
86.01
87.99
87.41
84.37
77.55
64.38
42.46
11.33
-26.53
-66.16
-101.95
-129.66
-147.56
-156.19
-157.11
-151.68
-140.45
-123.46
-101.00
-73.97
-43.95
-12.66
18.66
49.56
80.32
111.53
143.53
175.90
207.09
234.57
255.50
267.71
270.57
265.15
253.70
238.55
221.17
201.95
180.82
158.13
135.19
113.99
96.04
81.37
68.10
53.09
33.11
6.19
-27.61
-66.10
-105.44
-141.08
-168.65
-184.90
-188.26
-179.24
-160.57
-137.23
-115.82
-103.18
-104.34
-120.44
-147.44
-177.12
-200.09
-209.88
-205.67
-192.23
-176.77
-164.61
-156.24
-147.35
-131.76
-105.03
-66.87
-20.97
27.17
72.68
112.64
145.91
172.13
190.79
201.20
203.02
196.92
184.76
169.22
153.24
139.50
129.86
124.97
124.37
126.67
130.06
133.10
135.01
135.91
136.48
137.53
139.50
142.12
144.45
145.20
143.16
137.54
128.14
115.17
99.05
80.24
59.23
36.81
14.19
-6.93
-24.59
-37.00
-42.91
-42.04
-35.12
-23.78
-10.17
3.58
15.82
25.69
33.31
39.48
45.42
52.34
61.26
72.80
87.10
103.51
120.34
134.92
144.03
144.83
135.76
116.97
90.11
57.63
22.00
-14.78
-51.23
-85.99
-117.17
-142.07
-157.31
-159.89
-148.54
-124.97
-94.16
-63.40
-40.14
-29.55
-32.97
-47.88
-69.64
-93.75
-117.80
-141.86
-167.43
-195.57
-225.29
-253.02
-273.43
-281.24
-273.15
-249.27
-213.05
-170.07
-126.06
-85.25
-49.61
-19.18
6.71
28.32
45.00
55.47
58.79
55.31
46.98
36.90
28.32
23.38
22.38
23.79
25.15
24.35
20.60
14.75
8.68
4.36
2.99
4.68
8.66
13.75
18.17
19.29
13.59
-2.32
-29.78
-66.37
-105.58
-138.67
-157.81
-158.91
-142.51
-112.48
-73.71
-30.18
15.24
59.96
100.76
134.04
157.04
169.13
171.97
168.46
160.97
150.42
136.54
118.71
96.83
71.53
43.88
15.01
-14.08
-42.24
-68.06
-89.81
-105.72
-114.19
-114.12
-105.11
-87.87
-64.39
-37.96
-12.55
8.21
22.05
28.53
28.78
24.65
17.78
9.22
-0.32
-10.01
-18.61
-24.63
-26.91
-25.30
-20.81
-15.24
-10.38
-7.29
-6.05
-5.97
-6.16
-6.07
-5.72
-5.62
-6.45
-8.64
-12.11
-16.22
-19.90
-22.06
-21.97
-19.71
-16.32
-13.44
-12.66
-14.71
-19.12
-24.36
-28.67
-30.93
-31.27
-30.93
-31.68
-35.10
-41.94
-51.87
-63.49
-74.65
-82.80
-85.52
-81.09
-69.04
-50.45
-27.70
-3.76
18.71
37.99
53.45
65.18
73.51
78.69
80.82
80.13
76.99
72.03
66.02
59.98
55.15
52.76
53.65
57.92
64.85
73.14
81.61
89.69
97.69
106.14
115.09
123.74
130.74
134.99
136.37
135.85
134.92
134.78
135.66
137.06
138.24
138.80
138.57
137.02
132.59
122.72
105.32
80.17
49.76
18.46
-9.79
-33.83
-56.04
-80.09
-110.14
-146.42
-185.09
-219.97
-245.46
-259.01
-261.65
-256.67
-247.46
-236.24
-223.63
-209.66
-194.69
-179.58
-165.16
-151.71
-138.77
-125.30
-110.36
-93.50
-75.04
-55.92
-37.28
-20.00
-4.42
9.54
22.19
33.64
43.77
52.12
58.12
61.27
61.26
58.00
51.64
42.55
31.40
19.20
7.14
-3.73
-12.72
-19.71
-25.09
-29.47
-33.32
-36.60
-38.82
-39.40
-38.14
-35.50
-32.46
-30.03
-28.67
-27.96
-26.96
-24.88
-21.93
-19.52
-19.68
-23.94
-32.23
-42.53
-51.51
-55.79
-53.40
-44.39
-30.60
-14.63
1.21
15.70
28.75
40.91
52.66
63.96
74.18
82.45
88.07
90.95
91.58
90.89
89.74
88.56
87.13
84.79
80.75
74.59
66.51
57.10
46.93
36.10
24.23
10.78
-4.36
-20.64
-36.94
-52.15
-65.74
-77.80
-88.73
-98.61
-106.81
-112.32
-114.36
-113.02
-109.30
-104.64
-100.12
-95.93
-91.52
-86.08
-79.26
-71.41
-63.35
-55.75
-48.66
-41.39
-32.79
-21.79
-7.85
8.76
27.02
45.40
62.39
76.99
89.08
99.36
109.00
119.07
130.02
141.66
153.46
165.06
176.52
188.20
200.14
211.65
221.26
227.22
228.38
224.93
218.40
210.92
204.28
199.18
195.20
191.58
187.77
183.87
180.28
176.79
172.17
164.46
151.90
134.07
112.18
88.25
64.21
40.90
17.73
-6.68
-33.38
-62.23
-91.52
-118.75
-142.46
-162.40
-179.44
-195.31
-211.51
-228.55
-245.56
-260.38
-270.65
-276.00
-277.38
-275.99
-272.99
-268.91
-263.59
-256.66
-247.45
-235.59
-222.74
-210.42
-198.48
-186.08
-172.31
-156.80
-139.99
-121.76
-101.20
-78.56
-53.24
-23.01
13.71
56.90
104.70
148.32
177.49
197.48
214.83
229.59
243.72
258.42
273.33
286.48
294.99
297.09
292.54
280.49
261.14
236.65
209.26
180.86
152.95
126.79
104.34
87.80
77.42
72.54
72.55
76.08
81.52
87.54
93.33
98.83
103.63
105.25
99.86
83.70
53.77
9.05
-48.87
-116.28
-188.07
-258.68
-323.09
-376.34
-413.36
-429.94
-424.07
-396.89
-352.70
-297.39
-236.33
-172.45
-105.79
-34.98
39.83
114.67
181.56
230.75
254.37
249.57
219.79
173.60
122.02
75.41
41.14
22.71
20.00
30.24
49.10
71.65
93.20
110.08
120.08
122.45
117.51
106.01
88.80
66.82
41.35
14.13
-12.76
-37.20
-57.61
-73.17
-83.87
-90.33
-93.34
-93.59
-91.55
-87.68
-82.49
-76.72
-71.21
-66.67
-63.60
-62.21
-62.29
-63.37
-64.76
-65.77
-65.95
-65.25
-63.93
-62.43
-61.02
-59.65
-57.89
-55.24
-51.40
-46.56
-41.47
-37.09
-34.24
-33.25
-33.88
-35.48
-37.31
-38.82
-39.74
-40.04
-39.71
-38.62
-36.54
-33.18
-28.49
-22.70
-16.32
-9.99
-4.25
0.59
4.47
7.47
9.77
11.56
13.09
14.56
16.06
17.47
18.41
18.44
17.31
15.16
12.50
10.02
8.20
7.18
6.74
6.56
6.46
6.49
6.83
7.63
8.77
9.85
10.34
9.80
8.08
5.39
2.15
-1.21
-4.43
-7.51
-10.56
-13.75
-17.10
-20.49
-23.68
-26.49
-28.87
-30.93
-32.95
-35.31
-38.37
-42.34
-47.25
-52.89
-58.88
-64.79
-70.21
-74.69
-77.70
-78.50
-76.27
-70.25
-60.06
-45.95
-28.74
-9.69
9.85
28.72
46.19
61.92
75.82
87.96
98.37
106.89
113.28
117.25
118.68
117.84
115.47
112.62
110.35
109.48
110.59
114.03
119.78
127.12
134.38
139.07
138.57
131.31
117.68
100.18
82.47
67.81
57.62
51.13
46.09
40.18
32.26
22.68
12.75
3.73
-3.83
-10.14
-15.76
-21.09
-26.06
-30.21
-33.11
-34.75
-35.55
-36.25
-37.53
-39.69
-42.64
-46.01
-49.51
-53.03
-56.67
-60.54
-64.49
-68.12
-70.77
-71.75
-70.55
-66.86
-60.72
-52.51
-43.00
-33.22
-24.29
-17.12
-12.13
-9.14
-7.47
-6.41
-5.43
-4.48
-3.80
-3.75
-4.44
-5.67
-6.99
-7.85
-7.90
-7.08
-5.66
-4.07
-2.78
-2.00
-1.65
-1.40
-0.85
0.16
1.41
2.38
2.49
1.47
-0.49
-2.81
-4.84
-6.21
-7.05
-7.86
-9.29
-11.80
-15.52
-20.26
-25.65
-31.21
-36.45
-40.89
-44.13
-46.12
-47.19
-48.10
-49.71
-52.57
-56.65
-61.29
-65.46
-68.14
-68.70
-67.06
-63.62
-59.12
-54.29
-49.61
-44.95
-39.52
-31.95
-20.84
-5.46
13.75
34.90
55.20
71.69
82.22
85.97
83.44
75.98
65.11
52.07
37.62
22.23
6.47
-8.72
-22.14
-32.71
-39.93
-44.22
-46.73
-48.96
-52.01
-56.22
-61.10
-65.75
-69.36
-71.48
-72.19
-71.75
-70.40
-68.28
-65.51
-62.29
-58.90
-55.54
-52.16
-48.29
-43.22
-36.29
-27.27
-16.61
-5.41
4.98
13.43
19.36
22.67
23.72
23.05
21.37
19.55
18.45
18.71
20.35
22.74
25.00
26.81
28.95
33.26
41.77
55.30
72.54
90.15
104.05
111.08
110.20
102.69
91.33
79.24
68.97
62.16
59.44
60.61
64.66
69.96
74.49
76.45
74.83
69.67
62.00
53.33
45.05
37.97
32.23
27.41
22.78
17.52
10.95
2.72
-7.02
-17.38
-26.86
-33.65
-36.34
-34.59
-29.51
-23.19
-17.80
-14.63
-13.63
-13.75
-13.87
-13.53
-13.11
-13.43
-15.02
-17.71
-20.75
-23.11
-23.97
-22.87
-19.50
-13.63
-5.10
5.85
18.38
31.05
42.19
50.38
54.82
55.47
53.03
48.56
43.29
38.27
34.24
31.51
30.05
29.56
29.69
30.07
30.24
29.83
28.60
26.61
24.16
21.67
19.38
17.26
15.15
12.99
11.13
10.21
10.84
13.20
16.80
20.65
23.63
24.76
23.34
19.01
11.82
2.53
-7.14
-14.78
-17.97
-15.17
-6.35
6.99
22.46
37.61
50.58
60.32
66.47
69.20
69.11
67.26
65.11
64.25
65.84
70.17
76.48
83.20
88.46
90.68
88.98
83.36
74.45
63.15
50.16
35.78
19.99
2.74
-15.86
-35.60
-56.34
-78.01
-100.38
-122.74
-143.59
-160.95
-172.99
-178.83
-178.90
-174.70
-168.12
-160.61
-152.77
-144.52
-135.60
-126.06
-116.33
-106.93
-98.15
-89.78
-81.40
-72.65
-63.63
-54.91
-47.39
-41.91
-38.90
-38.27
-39.38
-41.29
-43.03
-43.83
-43.29
-41.31
-37.99
-33.45
-27.85
-21.46
-14.68
-8.09
-2.22
2.58
6.37
9.61
12.89
16.75
21.33
26.26
30.84
34.15
35.45
34.40
31.20
26.64
21.80
17.75
15.06
13.66
12.83
11.55
8.96
4.67
-1.11
-7.69
-14.13
-19.51
-23.02
-24.20
-22.96
-19.73
-15.26
-10.49
-6.24
-3.01
-1.01
-0.35
-1.27
-4.13
-9.17
-16.16
-24.13
-31.62
-37.10
-39.66
-39.31
-36.86
-33.39
-29.65
-25.82
-21.59
-16.59
-10.84
-4.85
0.56
4.56
6.70
7.01
5.92
4.09
2.17
0.59
-0.48
-1.08
-1.31
-1.17
-0.59
0.51
2.08
3.91
5.59
6.73
7.05
6.46
5.11
3.23
1.01
-1.42
-4.13
-7.31
-11.22
-16.05
-21.65
-27.54
-32.97
-37.32
-40.42
-42.77
-45.36
-49.27
-55.17
-63.02
-72.02
-80.92
-88.32
-92.96
-93.96
-91.03
-84.51
-75.40
-65.15
-55.20
-46.51
-39.31
-33.09
-26.99
-20.26
-12.62
-4.34
4.00
11.77
18.60
24.48
29.70
34.71
39.89
45.40
51.11
56.68
61.60
65.44
68.02
69.45
70.03
70.02
69.37
67.86
65.32
61.93
58.29
55.13
52.95
51.69
50.82
49.79
48.27
46.32
44.18
41.91
39.38
36.27
32.47
28.19
23.79
19.43
14.89
9.58
3.07
-4.49
-12.27
-18.97
-23.25
-24.22
-21.65
-16.02
-8.34
0.11
8.04
14.40
18.60
20.62
20.91
20.26
19.36
18.50
17.45
15.64
12.64
8.57
4.30
1.08
0.05
1.42
4.27
6.79
7.14
4.25
-1.70
-9.67
-18.51
-27.65
-37.16
-47.32
-58.08
-68.69
-77.86
-84.25
-87.14
-86.85
-84.68
-82.39
-81.51
-82.79
-86.25
-91.47
-98.19
-106.40
-115.89
-125.71
-133.87
-137.93
-136.24
-129.13
-118.89
-108.25
-98.30
-87.09
-70.37
-43.96
-6.61
38.65
85.63
127.64
160.29
182.65
196.45
204.16
207.18
205.58
199.03
188.11
174.88
162.20
152.27
145.33
139.43
131.42
118.73
101.02
80.87
63.20
53.59
56.23
72.25
99.15
131.43
162.30
185.65
197.67
197.52
186.97
169.12
146.95
122.51
96.80
70.41
44.33
20.29
0.44
-13.39
-20.62
-22.27
-20.58
-18.09
-16.71
-17.14
-18.98
-21.26
-23.18
-24.57
-25.85
-27.85
-31.48
-37.65
-47.39
-61.80
-81.78
-107.19
-136.14
-164.77
-188.09
-201.62
-202.73
-191.45
-169.88
-140.97
-107.27
-70.56
-32.30
5.53
40.07
68.03
86.88
96.07
97.48
94.93
92.76
94.18
100.04
108.37
114.96
114.79
103.75
80.33
46.25
6.20
-33.54
-66.77
-88.92
-98.08
-95.14
-83.29
-67.13
-51.61
-40.83
-36.98
-39.53
-45.21
-49.03
-46.22
-34.27
-14.16
9.90
32.16
47.70
54.11
51.93
43.66
32.17
19.47
6.47
-6.48
-18.86
-29.67
-37.93
-43.24
-46.14
-47.78
-49.20
-50.69
-51.55
-50.48
-46.25
-38.36
-27.32
-14.49
-1.52
10.25
20.21
28.60
36.25
44.14
52.89
62.44
71.88
79.59
83.70
82.60
75.58
63.13
46.89
29.12
11.89
-3.45
-16.65
-28.23
-38.95
-49.23
-58.89
-67.33
-73.92
-78.36
-80.70
-81.08
-79.53
-75.87
-69.90
-61.78
-52.08
-41.67
-31.32
-21.41
-11.83
-2.37
6.96
15.63
22.71
27.21
28.56
26.81
22.60
16.81
10.30
3.81
-2.08
-6.79
-9.77
-10.47
-8.57
-4.08
2.57
10.57
18.92
26.61
32.87
37.23
39.63
40.26
39.56
37.99
35.95
33.70
31.35
28.91
26.42
24.11
22.37
21.68
22.43
24.77
28.43
32.91
37.61
42.02
45.84
48.99
51.49
53.45
54.99
56.21
57.22
58.06
58.68
58.95
58.78
58.21
57.37
56.48
55.66
54.94
54.35
54.03
54.28
55.49
57.96
61.81
66.88
72.90
79.51
86.30
92.71
98.00
101.24
101.66
98.98
93.57
86.36
78.32
69.99
61.19
51.40
40.32
28.44
17.03
7.62
1.01
-3.43
-7.93
-15.54
-28.97
-49.39
-75.81
-105.34
-134.10
-158.36
-175.69
-185.73
-190.23
-192.57
-196.68
-205.64
-220.31
-238.47
-255.08
-263.58
-258.03
-235.29
-196.11
-144.74
-87.20
-28.87
27.12
80.26
131.60
181.95
230.18
272.76
304.56
320.68
318.46
298.81
266.35
228.21
191.87
162.81
142.93
130.27
120.40
108.56
91.53
68.44
40.06
7.44
-29.36
-71.19
-118.65
-170.36
-221.95
-266.67
-297.66
-310.68
-305.99
-288.17
-263.96
-239.36
-217.38
-197.52
-177.16
-153.71
-126.42
-96.90
-68.19
-43.21
-23.32
-8.08
4.23
15.49
26.82
38.17
48.54
56.55
61.20
62.19
60.08
55.87
50.62
44.93
38.87
32.12
24.43
15.93
7.24
-0.80
-7.52
-12.79
-17.19
-21.66
-27.18
-34.18
-42.31
-50.46
-57.12
-60.88
-60.90
-57.23
-50.70
-42.67
-34.49
-27.16
-21.12
-16.32
-12.48
-9.28
-6.60
-4.43
-2.87
-1.94
-1.55
-1.48
-1.45
-1.24
-0.81
-0.32
-0.01
0.04
0.13
1.02
3.70
8.99
17.12
27.50
38.85
49.59
58.34
64.31
67.39
67.95
66.62
64.01
60.63
56.92
53.28
50.05
47.49
45.64
44.43
43.55
42.67
41.55
40.10
38.43
36.77
35.37
34.31
33.54
32.88
32.08
30.88
28.98
25.98
21.32
14.51
5.39
-5.47
-16.77
-26.71
-33.60
-36.56
-35.75
-32.26
-27.55
-22.88
-19.06
-16.48
-15.45
-16.34
-19.46
-24.79
-31.68
-38.86
-44.77
-48.07
-48.08
-44.99
-39.73
-33.67
-28.10
-23.79
-20.74
-18.16
-14.89
-9.96
-3.24
4.43
11.46
16.26
18.11
17.51
16.08
15.73
18.03
23.75
32.85
44.73
58.31
71.79
82.66
87.95
85.15
73.50
54.89
33.83
16.06
6.57
7.56
17.43
31.39
43.35
48.29
43.98
31.27
12.77
-9.09
-33.46
-60.65
-90.39
-119.80
-143.19
-154.09
-148.79
-128.82
-100.73
-72.72
-50.43
-34.24
-19.90
-2.02
22.03
50.18
76.83
96.14
105.27
105.69
102.03
99.41
100.94
106.57
113.51
117.83
116.35
107.82
93.14
74.70
55.04
35.83
17.54
-0.20
-17.77
-34.87
-50.50
-63.37
-72.61
-78.33
-81.53
-83.62
-85.68
-87.93
-89.59
-89.27
-85.70
-78.34
-67.80
-55.65
-43.85
-34.09
-27.15
-22.77
-19.92
-17.36
-14.13
-9.83
-4.57
1.24
6.98
11.97
15.44
16.73
15.54
12.12
7.28
2.17
-2.21
-5.30
-7.11
-7.98
-8.26
-8.13
-7.53
-6.40
-4.80
-3.13
-2.04
-2.18
-4.04
-7.61
-12.34
-17.14
-20.70
-21.84
-19.81
-14.50
-6.27
4.17
16.08
28.72
41.35
53.29
63.94
73.00
80.48
86.67
91.91
96.36
99.93
102.40
103.52
103.27
101.87
99.66
97.00
94.29
92.07
91.13
92.37
96.43
103.13
111.24
118.66
122.97
122.32
116.03
104.67
89.73
72.85
55.18
37.01
17.97
-2.51
-24.69
-48.28
-72.41
-95.91
-117.60
-136.43
-151.61
-162.60
-169.06
-171.02
-168.88
-163.42
-155.66
-146.65
-137.22
-127.79
-118.55
-109.51
-100.72
-92.36
-84.72
-78.20
-73.21
-70.14
-69.18
-70.24
-72.88
-76.36
-79.85
-82.66
-84.47
-85.32
-85.58
-85.73
-86.19
-87.28
-89.20
-92.10
-96.12
-101.29
-107.50
-114.42
-121.52
-128.21
-133.98
-138.69
-142.55
-146.07
-149.75
-153.70
-157.28
-159.21
-157.94
-152.31
-142.22
-128.68
-113.49
-98.44
-84.71
-72.32
-60.50
-48.02
-33.71
-17.12
1.24
19.54
34.82
43.47
42.46
30.75
10.36
-13.52
-33.83
-43.86
-39.34
-19.51
13.07
53.91
98.02
140.93
179.12
210.02
232.23
245.73
251.86
252.78
250.29
245.02
236.17
222.49
203.59
180.82
156.79
134.17
114.33
96.85
80.23
63.20
45.65
28.69
13.87
2.15
-6.38
-12.21
-15.57
-16.08
-13.11
-6.74
1.42
8.32
10.56
6.05
-4.55
-17.74
-28.59
-32.81
-28.74
-17.91
-4.03
8.82
17.93
22.68
24.07
23.72
23.15
23.54
25.88
31.18
40.21
53.14
69.08
86.23
102.42
115.86
125.68
132.04
136.02
139.31
143.99
152.25
165.67
184.46
206.85
229.13
246.56
254.91
251.83
237.49
214.12
184.74
151.91
117.14
81.10
44.46
8.54
-24.81
-53.79
-77.40
-95.73
-109.85
-121.18
-130.85
-139.40
-146.77
-152.61
-156.49
-158.19
-157.65
-155.02
-150.57
-144.67
-137.69
-129.86
-121.26
-111.89
-101.85
-91.52
-81.50
-72.32
-64.17
-56.73
-49.43
-41.67
-33.19
-24.18
-15.22
-7.04
-0.36
4.31
6.63
6.61
4.70
1.73
-1.27
-3.48
-4.59
-4.90
-5.04
-5.61
-6.94
-9.10
-12.06
-15.83
-20.35
-25.35
-30.21
-34.08
-36.29
-36.65
-35.54
-33.70
-31.84
-30.28
-28.87
-27.26
-25.17
-22.68
-20.14
-17.99
-16.46
-15.39
-14.40
-13.10
-11.41
-9.60
-8.11
-7.31
-7.37
-8.20
-9.63
-11.48
-13.52
-15.41
-16.69
-16.92
-16.06
-14.63
-13.71
-14.50
-17.80
-23.57
-30.93
-38.59
-45.39
-50.78
-54.92
-58.42
-61.95
-65.94
-70.41
-75.15
-79.81
-84.20
-88.26
-92.18
-96.30
-101.10
-107.06
-114.39
-122.87
-131.65
-139.15
-143.31
-141.84
-132.93
-115.92
-91.98
-64.05
-36.11
-11.80
6.86
19.84
28.37
33.46
34.75
30.67
19.77
2.51
-18.01
-37.07
-50.45
-56.52
-56.78
-54.54
-52.78
-52.55
-52.77
-51.35
-46.52
-37.54
-24.36
-6.94
15.13
42.10
73.19
105.98
136.78
161.83
178.71
187.12
188.57
185.39
179.32
170.94
159.71
144.87
126.31
105.04
83.11
62.89
46.36
34.61
27.72
25.01
25.35
27.46
30.07
32.09
32.76
31.87
29.75
27.24
25.38
25.26
27.70
33.03
40.94
50.35
59.64
67.09
71.42
72.35
70.57
67.40
63.95
60.66
57.05
52.14
45.08
35.67
24.35
11.98
-0.54
-12.36
-22.58
-30.13
-33.95
-33.25
-27.97
-18.90
-7.59
4.08
14.31
21.71
25.26
24.33
18.74
8.91
-3.94
-17.76
-30.05
-38.56
-42.02
-40.47
-35.19
-28.07
-20.74
-13.88
-7.04
1.06
11.64
25.20
41.01
57.47
72.78
85.77
96.36
105.42
114.06
122.87
131.38
138.29
142.18
142.23
138.60
132.17
123.97
114.57
103.97
91.94
78.42
63.82
48.88
34.31
20.54
7.64
-4.39
-15.45
-25.29
-33.66
-40.66
-46.77
-52.70
-59.03
-66.00
-73.49
-81.24
-89.00
-96.62
-103.79
-109.85
-113.71
-114.16
-110.38
-102.38
-91.13
-78.19
-65.23
-53.40
-43.13
-34.26
-26.32
-18.91
-11.89
-5.37
0.38
5.07
8.50
10.63
11.55
11.49
10.77
9.75
8.75
7.98
7.52
7.35
7.36
7.43
7.48
7.46
7.35
7.23
7.15
7.14
7.20
7.25
7.17
6.80
6.01
4.73
2.99
0.92
-1.32
-3.55
-5.65
-7.58
-9.43
-11.37
-13.69
-16.70
-20.63
-25.50
-31.00
-36.40
-40.71
-42.86
-42.10
-38.25
-31.81
-23.80
-15.41
-7.61
-0.97
4.35
8.50
11.72
14.21
16.12
17.58
18.69
19.55
20.21
20.63
20.78
20.61
20.16
19.54
18.86
18.23
17.75
17.46
17.37
17.45
17.62
17.76
17.76
17.52
16.97
16.18
15.19
14.09
12.94
11.75
10.47
9.03
7.39
5.51
3.43
1.28
-0.79
-2.58
-3.97
-5.04
-5.94
-6.96
-8.29
-9.99
-11.95
-13.96
-15.83
-17.54
-19.19
-20.92
-22.84
-24.99
-27.34
-29.91
-32.72
-35.70
-38.51
-40.51
-40.84
-38.84
-34.28
-27.60
-19.76
-11.86
-4.81
0.91
5.27
8.49
10.83
12.52
13.77
14.76
15.68
16.67
17.69
18.55
19.01
18.89
18.17
17.00
15.63
14.31
13.18
12.31
11.72
11.42
11.37
11.52
11.70
11.73
11.48
10.92
10.09
9.14
8.17
7.21
6.20
5.07
3.83
2.54
1.32
0.27
-0.57
-1.25
-1.88
-2.55
-3.33
-4.28
-5.38
-6.56
-7.69
-8.64
-9.30
-9.67
-9.87
-10.11
-10.60
-11.53
-12.92
-14.65
-16.49
-18.14
-19.39
-20.19
-20.65
-21.09
-21.91
-23.44
-25.80
-28.72
-31.59
-33.53
-33.74
-31.70
-27.46
-21.59
-14.97
-8.54
-3.00
1.34
4.51
6.70
8.16
9.10
9.70
10.12
10.51
10.93
11.35
11.62
11.57
11.09
10.23
9.16
8.11
7.31
6.89
6.86
7.17
7.76
8.47
9.18
9.70
9.87
9.61
8.97
8.10
7.19
6.41
5.83
5.39
4.96
4.39
3.55
2.44
1.12
-0.22
-1.41
-2.32
-2.96
-3.48
-4.04
-4.81
-5.80
-6.93
-8.02
-8.93
-9.57
-9.94
-10.16
-10.35
-10.70
-11.39
-12.56
-14.21
-16.20
-18.24
-19.96
-21.07
-21.51
-21.49
-21.49
-22.01
-23.39
-25.58
-28.14
-30.32
-31.34
-30.64
-28.05
-23.77
-18.29
-12.24
-6.25
-0.87
3.46
6.57
8.52
9.61
10.27
10.88
11.62
12.43
13.16
13.58
13.58
13.17
12.45
11.52
10.50
9.48
8.61
8.03
7.87
8.16
8.81
9.60
10.29
10.65
10.59
10.15
9.42
8.57
7.69
6.87
6.15
5.56
5.15
4.91
4.77
4.62
4.32
3.81
3.13
2.37
1.68
1.10
0.61
0.13
-0.38
-0.92
-1.49
-2.07
-2.74
-3.59
-4.67
-5.92
-7.22
-8.43
-9.45
-10.33
-11.19
-12.19
-13.45
-14.97
-16.66
-18.34
-19.86
-21.11
-22.12
-23.03
-24.09
-25.56
-27.63
-30.29
-33.30
-36.18
-38.27
-38.88
-37.53
-34.04
-28.64
-21.93
-14.70
-7.71
-1.62
3.23
6.74
9.06
10.47
11.31
11.89
12.43
13.00
13.50
13.77
13.69
13.20
12.35
11.26
10.11
9.07
8.30
7.93
8.04
8.63
9.58
10.68
11.68
12.36
12.61
12.45
12.02
11.46
10.88
10.26
9.53
8.59
7.41
6.09
4.81
3.73
2.94
2.37
1.85
1.17
0.09
-1.51
-3.64
-6.03
-8.11
-9.04
-7.94
-4.28
1.86
9.59
17.46
23.87
27.63
28.21
25.80
21.10
14.93
8.02
0.95
-5.86
-12.09
-17.53
-22.07
-25.78
-28.86
-31.62
-34.39
-37.45
-41.05
-45.19
-49.59
-53.66
-56.56
-57.40
-55.63
-51.20
-44.62
-36.80
-28.71
-21.10
-14.33
-8.44
-3.36
0.99
4.59
7.41
9.48
10.94
12.01
12.86
13.59
14.15
14.44
14.40
14.10
13.70
13.43
13.49
13.98
14.84
15.93
17.08
18.14
19.04
19.82
20.54
21.23
21.85
22.32
22.50
22.30
21.72
20.81
19.66
18.33
16.86
15.28
13.65
12.03
10.54
9.19
7.95
6.74
5.49
4.18
2.81
1.38
-0.14
-1.81
-3.67
-5.67
-7.66
-9.51
-11.15
-12.70
-14.39
-16.47
-19.05
-22.06
-25.26
-28.36
-31.19
-33.75
-36.21
-38.88
-42.08
-46.08
-50.98
-56.57
-62.28
-67.15
-70.04
-69.96
-66.34
-59.30
-49.61
-38.47
-27.13
-16.62
-7.57
-0.17
5.65
10.20
13.84
16.90
19.57
21.88
23.76
25.07
25.70
25.71
25.24
24.52
23.80
23.30
23.24
23.74
24.85
26.47
28.41
30.36
32.06
33.33
34.10
34.37
34.17
33.56
32.57
31.28
29.80
28.26
26.74
25.29
23.90
22.55
21.24
19.97
18.73
17.46
16.10
14.57
12.91
11.20
9.54
7.99
6.46
4.82
2.91
0.68
-1.80
-4.37
-6.84
-9.13
-11.25
-13.31
-15.47
-17.84
-20.49
-23.43
-26.63
-30.03
-33.58
-37.23
-41.01
-44.99
-49.37
-54.38
-60.15
-66.53
-72.92
-78.23
-81.11
-80.33
-75.25
-66.11
-53.98
-40.45
-27.06
-14.93
-4.58
3.94
10.87
16.46
20.96
24.57
27.52
30.01
32.09
33.70
34.68
34.90
34.41
33.52
32.67
32.25
32.49
33.37
34.69
36.17
37.61
38.85
39.79
40.37
40.55
40.32
39.76
38.95
38.01
36.99
35.85
34.54
32.99
31.17
29.19
27.16
25.20
23.38
21.69
20.04
18.38
16.68
14.96
13.30
11.71
10.10
8.33
6.25
3.84
1.20
-1.41
-3.76
-5.74
-7.44
-9.10
-11.03
-13.47
-16.54
-20.18
-24.24
-28.50
-32.73
-36.76
-40.56
-44.18
-47.91
-52.19
-57.42
-63.78
-70.86
-77.69
-82.76
-84.51
-81.77
-74.22
-62.52
-48.10
-32.79
-18.30
-5.87
3.89
11.02
15.99
19.47
22.05
24.14
25.89
27.22
28.03
28.25
27.98
27.44
26.87
26.46
26.33
26.50
26.92
27.52
28.15
28.65
28.88
28.75
28.31
27.71
27.24
27.16
27.67
28.79
30.39
32.22
33.99
35.51
36.65
37.40
37.76
37.78
37.53
37.03
36.34
35.46
34.37
33.05
31.45
29.59
27.52
25.39
23.35
21.56
20.10
18.93
17.96
17.03
16.02
14.83
13.47
12.01
10.58
9.24
7.97
6.64
5.03
2.94
0.31
-2.73
-5.88
-8.87
-11.48
-13.79
-16.07
-18.67
-21.83
-25.57
-29.70
-33.86
-37.80
-41.41
-44.75
-48.09
-51.75
-56.09
-61.42
-67.87
-75.23
-82.76
-89.23
-93.04
-92.72
-87.45
-77.41
-63.78
-48.36
-33.06
-19.34
-7.91
1.16
8.29
14.07
19.05
23.67
28.13
32.47
36.54
40.11
42.90
44.74
45.60
45.59
44.97
44.15
43.53
43.51
44.31
45.89
47.94
49.95
51.42
52.03
51.75
50.85
49.68
48.48
47.34
46.14
44.67
42.81
40.55
38.07
35.58
33.29
31.29
29.55
27.99
26.55
25.21
23.98
22.84
21.72
20.46
18.93
17.06
14.94
12.78
10.85
9.33
8.21
7.34
6.46
5.34
3.87
2.09
0.11
-1.94
-3.99
-6.06
-8.18
-10.36
-12.58
-14.80
-16.99
-19.24
-21.70
-24.57
-27.96
-31.84
-36.04
-40.29
-44.35
-48.15
-51.84
-55.79
-60.47
-66.20
-72.88
-79.78
-85.63
-88.84
-88.05
-82.61
-72.78
-59.69
-44.95
-30.16
-16.62
-5.13
3.96
10.66
15.30
18.47
20.90
23.32
26.18
29.53
33.03
36.12
38.27
39.28
39.29
38.70
38.04
37.70
37.94
38.78
40.09
41.68
43.30
44.76
45.85
46.42
46.36
45.66
44.44
42.89
41.25
39.69
38.29
36.99
35.70
34.30
32.73
30.97
29.08
27.14
25.22
23.38
21.62
19.92
18.26
16.66
15.17
13.87
12.73
11.64
10.43
8.92
7.10
5.11
3.16
1.45
-0.04
-1.51
-3.22
-5.36
-7.87
-10.51
-12.95
-14.96
-16.61
-18.19
-20.12
-22.71
-25.98
-29.73
-33.62
-37.30
-40.65
-43.72
-46.77
-50.13
-54.11
-58.91
-64.53
-70.58
-76.31
-80.56
-82.06
-79.74
-73.16
-62.67
-49.39
-34.89
-20.74
-8.13
2.27
10.38
16.46
20.94
24.22
26.64
28.41
29.67
30.55
31.14
31.54
31.76
31.82
31.72
31.55
31.46
31.70
32.48
33.87
35.78
37.87
39.73
40.99
41.44
41.10
40.13
38.76
37.19
35.54
33.83
32.06
30.23
28.34
26.40
24.44
22.47
20.57
18.78
17.18
15.74
14.35
12.88
11.20
9.32
7.37
5.47
3.76
2.20
0.70
-0.89
-2.68
-4.69
-6.88
-9.15
-11.41
-13.63
-15.84
-18.17
-20.77
-23.76
-27.17
-30.88
-34.66
-38.25
-41.55
-44.59
-47.63
-51.06
-55.22
-60.36
-66.41
-72.90
-78.89
-83.12
-84.29
-81.44
-74.29
-63.37
-49.92
-35.50
-21.58
-9.22
1.01
9.02
15.07
19.58
23.07
26.02
28.80
31.54
34.15
36.32
37.71
38.16
37.76
36.85
35.93
35.43
35.62
36.53
37.98
39.72
41.44
42.86
43.75
44.03
43.65
42.74
41.48
40.03
38.51
36.93
35.27
33.50
31.63
29.69
27.72
25.75
23.75
21.72
19.70
17.82
16.23
15.03
14.22
13.68
13.22
12.61
11.73
10.53
9.05
7.36
5.56
3.68
1.77
-0.15
-2.10
-4.09
-6.16
-8.33
-10.55
-12.76
-14.86
-16.81
-18.69
-20.69
-23.07
-26.01
-29.57
-33.60
-37.83
-41.89
-45.52
-48.62
-51.32
-53.98
-57.07
-61.07
-66.22
-72.41
-79.01
-84.90
-88.65
-88.86
-84.61
-75.81
-63.25
-48.47
-33.27
-19.23
-7.33
2.13
9.38
14.89
19.17
22.64
25.62
28.38
31.09
33.83
36.46
38.70
40.20
40.75
40.34
39.29
38.12
37.35
37.35
38.15
39.48
40.88
41.94
42.39
42.23
41.62
40.78
39.88
38.93
37.90
36.72
35.35
33.80
32.10
30.30
28.41
26.48
24.55
22.66
20.81
19.04
17.36
15.81
14.40
13.15
12.01
10.93
9.84
8.73
7.61
6.46
5.23
3.82
2.15
0.24
-1.79
-3.77
-5.59
-7.27
-8.93
-10.72
-12.69
-14.81
-16.99
-19.20
-21.52
-24.17
-27.31
-30.96
-34.97
-39.00
-42.68
-45.82
-48.47
-50.92
-53.63
-57.08
-61.55
-67.10
-73.31
-79.37
-84.05
-85.97
-83.96
-77.48
-66.85
-53.21
-38.22
-23.56
-10.54
0.14
8.39
14.47
18.82
21.92
24.23
26.12
27.87
29.53
30.98
32.01
32.44
32.23
31.51
30.58
29.74
29.26
29.31
29.91
30.97
32.30
33.63
34.71
35.31
35.35
34.87
34.01
32.92
31.78
30.63
29.51
28.36
27.09
25.58
23.81
21.87
19.92
18.10
16.52
15.15
13.90
12.62
11.22
9.66
8.03
6.41
4.88
3.49
2.32
1.41
0.66
-0.17
-1.41
-3.34
-5.99
-9.13
-12.31
-14.77
-16.03
-16.17
-15.84
-15.96
-17.23
-19.83
-23.41
-27.28
-30.13
-31.12
-30.27
-28.40
-26.48
-24.95
-23.34
-20.48
-15.03
-5.12
9.98
29.51
51.38
73.10
92.52
108.10
118.80
124.14
125.80
126.23
128.05
132.99
141.15
150.64
157.73
157.80
141.22
104.04
49.81
-11.35
-68.69
-116.15
-153.04
-181.22
-202.04
-218.00
-226.64
-225.00
-211.98
-189.22
-160.26
-129.10
-99.22
-73.11
-51.28
-33.51
-19.68
-9.93
-4.85
-5.13
-10.81
-20.83
-33.04
-44.68
-52.60
-55.10
-52.51
-46.92
-40.99
-36.56
-34.06
-32.70
-31.39
-29.00
-25.16
-20.20
-14.75
-9.39
-4.34
0.40
4.80
8.61
11.48
12.96
12.62
10.11
5.26
-1.80
-10.71
-20.88
-31.72
-42.65
-53.28
-63.38
-72.92
-81.99
-90.71
-99.04
-106.68
-112.87
-116.48
-116.24
-111.16
-100.99
-86.37
-68.71
-49.71
-30.80
-12.86
3.77
18.99
32.64
44.49
54.47
63.03
71.15
80.06
90.67
103.00
115.97
127.72
136.23
140.08
138.95
133.72
126.20
118.37
111.63
106.20
101.05
94.41
84.61
70.70
52.62
30.80
5.75
-21.85
-50.39
-76.46
-95.00
-100.84
-91.11
-67.23
-34.90
-1.84
25.65
45.20
58.45
68.61
77.08
81.63
77.50
60.94
32.83
-0.18
-27.88
-41.33
-37.04
-18.43
6.36
28.71
43.32
49.56
50.16
48.49
46.37
43.61
39.06
32.10
23.36
14.44
6.89
1.38
-2.42
-5.55
-9.17
-14.08
-20.60
-28.54
-37.43
-46.65
-55.62
-63.89
-71.21
-77.29
-81.65
-83.70
-82.82
-78.75
-71.77
-62.68
-52.45
-41.96
-31.80
-22.38
-14.11
-7.50
-2.96
-0.62
-0.03
-0.28
-0.36
0.27
1.42
2.12
1.20
-2.12
-7.75
-14.72
-21.56
-26.99
-30.35
-31.75
-31.78
-31.12
-30.04
-28.36
-25.43
-20.49
-12.95
-2.51
10.77
26.50
44.08
62.74
81.68
100.19
117.81
134.39
149.97
164.57
177.85
189.01
196.83
200.09
198.12
191.15
180.37
167.49
154.11
141.19
128.81
116.36
102.90
87.65
70.27
50.92
30.20
9.00
-11.68
-31.04
-48.65
-64.62
-79.47
-93.69
-107.21
-119.02
-127.27
-129.77
-124.95
-112.62
-94.19
-72.38
-50.34
-30.88
-15.82
-5.85
-0.62
1.03
0.67
-0.07
-0.05
0.96
2.19
2.19
-0.46
-6.33
-14.83
-24.40
-33.18
-39.85
-44.01
-46.16
-47.12
-47.45
-47.20
-45.97
-43.40
-39.45
-34.64
-29.80
-25.67
-22.52
-20.01
-17.43
-14.12
-9.96
-5.45
-1.55
0.83
1.29
0.09
-1.98
-4.10
-5.78
-7.06
-8.31
-9.93
-12.07
-14.50
-16.82
-18.67
-19.93
-20.70
-21.14
-21.39
-21.44
-21.30
-21.01
-20.70
-20.52
-20.52
-20.56
-20.45
-20.04
-19.42
-18.86
-18.81
-19.59
-21.31
-23.84
-26.93
-30.41
-34.19
-38.38
-43.07
-48.42
-54.51
-61.36
-68.76
-76.11
-82.30
-85.86
-85.35
-79.92
-69.63
-55.59
-39.55
-23.35
-8.47
4.25
14.60
22.76
29.14
34.21
38.51
42.54
46.64
50.86
54.90
58.24
60.23
60.40
58.69
55.48
51.50
47.63
44.64
42.88
42.29
42.38
42.52
42.15
41.00
39.09
36.65
34.00
31.35
28.81
26.38
24.09
21.91
19.87
17.94
16.13
14.50
13.15
12.24
11.82
11.78
11.83
11.68
11.20
10.46
9.70
9.08
8.57
7.84
6.48
4.26
1.27
-2.09
-5.37
-8.33
-10.97
-13.53
-16.20
-18.97
-21.60
-23.79
-25.32
-26.20
-26.66
-27.01
-27.53
-28.38
-29.64
-31.31
-33.32
-35.59
-37.93
-40.09
-41.80
-43.01
-43.87
-44.82
-46.37
-48.86
-52.26
-56.07
-59.43
-61.30
-60.76
-57.14
-50.21
-40.17
-27.69
-13.86
0.03
12.80
23.78
32.92
40.71
47.72
54.14
59.53
63.00
63.72
61.41
56.59
50.43
44.21
38.88
34.80
31.94
30.13
29.37
29.81
31.59
34.54
38.11
41.43
43.62
44.12
42.97
40.69
38.09
35.89
34.45
33.67
33.18
32.59
31.66
30.42
29.08
27.85
26.88
26.20
25.75
25.49
25.37
25.38
25.48
25.63
25.70
25.60
25.21
24.51
23.58
22.64
21.97
21.84
22.37
23.39
24.50
25.10
24.59
22.55
18.83
13.57
7.20
0.45
-5.75
-10.42
-12.86
-12.88
-11.04
-8.49
-6.55
-6.27
-8.09
-11.79
-16.78
-22.58
-29.08
-36.46
-44.91
-54.11
-63.01
-69.86
-72.74
-70.17
-61.71
-48.20
-31.55
-14.22
1.52
14.03
22.57
27.15
28.33
26.92
23.89
20.27
17.00
14.73
13.63
13.33
13.01
11.84
9.30
5.49
1.10
-2.84
-5.33
-5.78
-4.17
-0.97
3.06
7.09
10.53
13.06
14.67
15.56
15.97
16.14
16.16
16.06
15.69
14.87
13.38
11.04
7.90
4.20
0.40
-2.99
-5.58
-7.23
-8.11
-8.59
-9.09
-9.87
-10.93
-12.01
-12.77
-12.87
-12.22
-10.96
-9.45
-8.07
-7.07
-6.52
-6.27
-6.12
-5.89
-5.50
-4.96
-4.31
-3.63
-3.08
-2.92
-3.52
-5.19
-8.12
-12.18
-17.05
-22.31
-27.54
-32.47
-36.92
-40.91
-44.62
-48.51
-53.21
-59.33
-67.06
-75.85
-84.19
-90.00
-91.22
-86.68
-76.49
-62.14
-45.92
-30.17
-16.60
-6.03
1.55
6.65
9.92
11.99
13.38
14.52
15.75
17.19
18.76
20.13
20.91
20.78
19.69
17.95
16.09
14.77
14.43
15.27
17.11
19.58
22.24
24.86
27.38
29.94
32.67
35.53
38.24
40.36
41.51
41.54
40.61
39.06
37.31
35.64
34.14
32.75
31.35
29.86
28.27
26.63
24.98
23.30
21.57
19.72
17.71
15.57
13.40
11.34
9.56
8.18
7.15
6.28
5.27
3.85
1.84
-0.75
-3.75
-6.88
-9.94
-12.83
-15.64
-18.56
-21.84
-25.71
-30.25
-35.41
-41.01
-46.75
-52.27
-57.21
-61.27
-64.35
-66.61
-68.52
-70.88
-74.55
-80.11
-87.53
-95.90
-103.56
-108.48
-108.91
-103.92
-93.75
-79.65
-63.55
-47.44
-32.90
-20.85
-11.53
-4.62
0.52
4.59
8.26
11.98
15.96
20.10
24.10
27.54
30.06
31.53
32.08
32.15
32.25
32.92
34.44
36.81
39.74
42.72
45.23
46.83
47.33
46.77
45.39
43.53
41.48
39.38
37.29
35.12
32.81
30.36
27.87
25.43
23.12
20.97
18.96
17.06
15.26
13.61
12.09
10.63
9.06
7.23
5.01
2.47
-0.21
-2.76
-4.96
-6.76
-8.32
-9.88
-11.67
-13.77
-16.04
-18.16
-19.85
-20.93
-21.39
-21.43
-21.33
-21.38
-21.81
-22.74
-24.24
-26.33
-28.94
-31.98
-35.31
-38.82
-42.54
-46.68
-51.63
-57.80
-65.34
-73.72
-81.62
-87.12
-88.23
-83.62
-73.24
-58.37
-41.23
-24.20
-9.11
3.14
12.51
19.54
24.88
29.17
32.87
36.41
40.08
43.99
47.92
51.41
53.87
54.92
54.55
53.21
51.62
50.51
50.37
51.29
52.99
54.96
56.67
57.67
57.70
56.65
54.64
51.92
48.83
45.71
42.78
40.12
37.69
35.37
33.11
30.90
28.80
26.87
25.12
23.52
22.04
20.65
19.39
18.29
17.34
16.42
15.41
14.17
12.72
11.19
9.76
8.53
7.47
6.36
5.01
3.30
1.32
-0.73
-2.65
-4.33
-5.83
-7.29
-8.87
-10.68
-12.76
-15.10
-17.68
-20.43
-23.28
-26.16
-29.06
-32.08
-35.35
-39.02
-43.12
-47.51
-51.92
-56.12
-60.01
-63.74
-67.64
-72.15
-77.67
-84.51
-92.74
-102.10
-111.86
-120.74
-127.03
-129.05
-125.60
-116.55
-102.96
-86.80
-70.39
-55.66
-43.70
-34.61
-27.82
-22.58
-18.30
-14.69
-11.72
-9.38
-7.52
-5.93
-4.55
-3.62
-3.78
-5.80
-10.09
-16.26
-23.05
-28.62
-31.16
-29.51
-23.37
-13.11
0.66
17.36
36.39
56.87
77.41
96.34
112.16
124.20
132.96
139.71
145.84
151.98
157.61
161.34
161.66
157.74
149.89
139.44
128.02
116.92
106.51
96.43
86.03
75.03
63.86
53.47
44.82
38.31
33.56
29.71
25.90
21.78
17.61
13.93
11.19
9.35
7.95
6.41
4.37
1.79
-1.04
-3.80
-6.26
-8.41
-10.48
-12.77
-15.52
-18.85
-22.70
-26.93
-31.43
-36.20
-41.37
-47.14
-53.63
-60.84
-68.58
-76.53
-84.28
-91.41
-97.47
-102.15
-105.40
-107.62
-109.57
-112.00
-115.14
-118.29
-119.82
-117.74
-110.55
-97.97
-81.16
-62.29
-43.64
-26.92
-12.87
-1.39
8.04
15.81
22.16
27.20
31.16
34.49
37.72
41.28
45.19
49.10
52.42
54.68
55.75
55.90
55.70
55.72
56.31
57.51
59.08
60.62
61.82
62.45
62.46
61.95
61.07
60.00
58.87
57.70
56.44
55.00
53.33
51.38
49.14
46.58
43.66
40.41
36.95
33.51
30.41
27.85
25.89
24.38
23.02
21.52
19.74
17.69
15.49
13.32
11.35
9.74
8.56
7.80
7.32
6.87
6.15
4.94
3.18
1.01
-1.27
-3.36
-5.05
-6.37
-7.50
-8.71
-10.19
-11.98
-13.99
-16.03
-17.97
-19.84
-21.77
-23.97
-26.58
-29.62
-32.98
-36.51
-40.08
-43.67
-47.40
-51.46
-56.13
-61.69
-68.37
-76.16
-84.65
-92.85
-99.21
-101.99
-99.76
-91.95
-79.15
-62.98
-45.57
-28.97
-14.65
-3.24
5.30
11.44
15.77
18.93
21.54
24.17
27.26
30.90
34.81
38.43
41.14
42.56
42.75
42.17
41.45
41.16
41.63
42.88
44.65
46.58
48.28
49.44
49.84
49.42
48.19
46.31
43.97
41.38
38.72
36.06
33.46
30.87
28.24
25.55
22.83
20.17
17.67
15.48
13.67
12.29
11.29
10.57
9.95
9.25
8.35
7.21
5.89
4.51
3.19
1.99
0.96
0.05
-0.75
-1.54
-2.43
-3.57
-5.05
-6.79
-8.55
-10.02
-11.02
-11.66
-12.28
-13.30
-15.00
-17.34
-20.05
-22.74
-25.18
-27.43
-29.72
-32.41
-35.71
-39.61
-43.93
-48.28
-52.31
-55.81
-58.83
-61.73
-65.09
-69.54
-75.40
-82.51
-90.08
-96.72
-100.84
-100.97
-96.31
-86.97
-73.94
-58.86
-43.54
-29.45
-17.51
-7.95
-0.53
5.24
9.95
14.10
18.10
22.20
26.46
30.69
34.59
37.77
39.97
41.16
41.56
41.58
41.68
42.29
43.67
45.85
48.64
51.60
54.17
55.85
56.31
55.53
53.77
51.39
48.73
45.95
42.97
39.63
35.75
31.25
26.20
20.78
15.22
9.74
4.54
-0.27
-4.69
-8.88
-13.19
-18.08
-23.97
-31.09
-39.28
-48.06
-56.68
-64.41
-70.84
-75.97
-80.24
-84.35
-88.96
-94.47
-100.96
-108.24
-116.02
-124.05
-132.14
-140.05
-147.34
-153.37
-157.47
-159.17
-158.50
-155.91
-152.02
-147.17
-141.12
-133.25
-122.81
-109.33
-92.57
-72.36
-48.25
-19.85
12.61
47.54
81.82
111.63
133.90
147.64
154.22
156.58
157.65
159.18
161.29
163.02
163.44
162.13
159.26
154.98
149.10
141.03
130.14
116.37
100.49
84.02
68.83
56.46
47.73
42.46
39.74
38.32
37.28
36.45
36.43
38.14
42.19
48.39
55.64
62.33
67.06
69.20
69.03
67.45
65.42
63.60
62.37
61.97
62.71
64.69
67.35
68.94
66.75
57.96
41.06
16.86
-11.59
-40.09
-65.04
-84.59
-98.96
-109.52
-117.44
-122.91
-125.04
-122.71
-115.47
-104.04
-89.98
-75.07
-60.52
-46.69
-33.33
-20.05
-6.86
5.69
16.67
25.20
30.92
34.14
35.69
36.49
37.18
37.80
37.97
37.17
35.13
32.02
28.32
24.57
20.97
17.27
12.91
7.25
-0.13
-9.19
-19.31
-29.43
-38.15
-44.00
-45.75
-42.76
-35.26
-24.32
-11.66
0.84
11.59
19.65
24.75
27.26
27.87
27.37
26.49
25.72
25.32
25.25
25.27
25.05
24.35
23.14
21.64
20.25
19.40
19.39
20.31
21.99
24.19
26.62
29.11
31.54
33.90
36.10
38.02
39.41
39.98
39.45
37.72
35.02
31.85
28.89
26.77
25.82
25.97
26.85
27.89
28.58
28.58
27.78
26.23
24.10
21.59
18.92
16.28
13.82
11.65
9.77
8.04
6.29
4.30
1.93
-0.76
-3.64
-6.50
-9.27
-11.99
-14.78
-17.68
-20.47
-22.67
-23.73
-23.49
-22.46
-21.76
-22.87
-26.94
-34.37
-44.53
-56.19
-67.97
-78.96
-88.95
-98.30
-107.58
-117.18
-127.07
-136.82
-145.67
-152.58
-156.48
-156.32
-151.42
-141.67
-127.71
-110.83
-92.68
-74.93
-58.85
-45.12
-33.77
-24.25
-15.68
-7.16
1.99
11.95
22.46
32.99
42.96
51.97
59.81
66.45
71.92
76.31
79.84
82.83
85.66
88.55
91.40
93.78
95.18
95.21
93.87
91.54
88.83
86.25
84.06
82.22
80.46
78.50
76.17
73.44
70.36
66.89
62.95
58.37
53.13
47.41
41.61
36.19
31.36
26.97
22.50
17.41
11.40
4.63
-2.35
-8.89
-14.59
-19.41
-23.66
-27.74
-31.95
-36.41
-41.09
-45.88
-50.63
-55.21
-59.41
-63.06
-66.05
-68.39
-70.27
-71.95
-73.87
-76.53
-80.37
-85.64
-92.02
-98.50
-103.44
-104.93
-101.49
-92.61
-79.01
-62.39
-44.82
-28.12
-13.45
-1.23
8.59
16.33
22.30
26.89
30.53
33.73
36.90
40.22
43.61
46.68
49.00
50.30
50.59
50.17
49.51
49.05
48.98
49.29
49.73
50.05
50.06
49.67
48.88
47.66
45.94
43.64
40.75
37.39
33.82
30.36
27.26
24.59
22.25
20.01
17.68
15.20
12.59
10.03
7.72
5.82
4.43
3.55
3.05
2.79
2.55
2.22
1.74
1.19
0.73
0.53
0.68
1.06
1.37
1.21
0.25
-1.65
-4.32
-7.42
-10.62
-13.79
-17.05
-20.72
-25.10
-30.28
-36.13
-42.33
-48.53
-54.48
-60.01
-65.10
-69.81
-74.32
-79.04
-84.41
-90.63
-97.33
-103.36
-106.98
-106.42
-100.51
-89.23
-73.75
-56.06
-38.28
-22.13
-8.60
2.05
9.98
15.68
19.75
22.89
25.74
28.85
32.48
36.57
40.76
44.55
47.48
49.27
49.91
49.67
48.99
48.33
48.05
48.27
48.84
49.47
49.83
49.73
49.13
48.16
46.98
45.65
44.20
42.58
40.77
38.83
36.80
34.74
32.65
30.50
28.23
25.84
23.33
20.77
18.21
15.72
13.32
11.11
9.18
7.70
6.87
6.83
7.55
8.82
10.24
11.41
11.98
11.86
11.15
10.08
8.87
7.64
6.35
4.95
3.43
1.85
0.39
-0.82
-1.76
-2.58
-3.58
-5.12
-7.48
-10.80
-15.00
-19.88
-25.13
-30.46
-35.73
-40.89
-46.08
-51.54
-57.56
-64.39
-72.08
-80.27
-88.11
-94.22
-97.03
-95.25
-88.31
-76.70
-61.83
-45.63
-29.99
-16.25
-5.05
3.63
10.16
15.03
18.67
21.41
23.51
25.14
26.38
27.20
27.57
27.45
26.93
26.25
25.71
25.63
26.18
27.40
29.13
31.17
33.23
35.09
36.57
37.56
38.05
38.10
37.80
37.27
36.56
35.67
34.53
33.10
31.40
29.50
27.54
25.65
23.90
22.30
20.83
19.45
18.12
16.83
15.50
14.09
12.53
10.80
8.98
7.19
5.53
4.04
2.61
1.05
-0.82
-3.07
-5.61
-8.27
-10.85
-13.28
-15.66
-18.18
-21.07
-24.42
-28.17
-32.11
-35.94
-39.34
-42.17
-44.52
-46.77
-49.51
-53.32
-58.56
-65.08
-72.08
-78.23
-81.97
-81.97
-77.53
-68.76
-56.59
-42.50
-28.09
-14.76
-3.39
5.66
12.47
17.39
20.89
23.41
25.41
27.33
29.46
31.96
34.67
37.17
38.93
39.59
39.13
37.90
36.58
35.84
36.10
37.40
39.33
41.29
42.71
43.24
42.83
41.71
40.20
38.57
36.98
35.42
33.78
31.96
29.93
27.75
25.53
23.36
21.28
19.30
17.42
15.70
14.22
13.09
12.35
11.91
11.63
11.31
10.82
10.15
9.39
8.65
7.98
7.31
6.53
5.53
4.24
2.71
1.07
-0.53
-1.94
-3.11
-4.09
-5.07
-6.28
-7.89
-9.95
-12.29
-14.66
-16.79
-18.60
-20.19
-21.83
-23.80
-26.29
-29.32
-32.75
-36.34
-39.89
-43.27
-46.43
-49.48
-52.62
-56.19
-60.59
-66.04
-72.35
-78.73
-83.82
-86.02
-84.03
-77.30
-66.33
-52.52
-37.76
-23.80
-11.85
-2.39
4.71
9.94
13.87
16.93
19.49
21.78
23.97
26.14
28.23
30.07
31.38
31.95
31.73
30.91
29.86
28.97
28.52
28.56
28.95
29.49
29.98
30.32
30.51
30.61
30.61
30.48
30.14
29.51
28.57
27.35
25.93
24.42
22.84
21.19
19.47
17.67
15.85
14.11
12.55
11.24
10.17
9.26
8.38
7.40
6.26
4.95
3.54
2.05
0.48
-1.20
-3.11
-5.27
-7.64
-10.08
-12.40
-14.46
-16.26
-18.01
-20.02
-22.53
-25.67
-29.26
-32.92
-36.13
-38.49
-39.79
-40.15
-39.88
-39.45
-39.21
-39.29
-39.55
-39.61
-39.07
-37.66
-35.40
-32.59
-29.80
-27.61
-26.54
-26.80
-28.23
-30.22
-31.70
-31.41
-28.14
-21.17
-10.48
3.10
18.11
32.82
45.67
55.54
62.01
65.19
65.63
64.07
61.27
57.82
54.12
50.27
46.18
41.66
36.55
30.90
24.96
19.16
13.95
9.66
6.41
4.12
2.62
1.70
1.22
1.07
1.19
1.51
1.99
2.59
3.26
3.88
4.35
4.54
4.43
4.08
3.68
3.39
3.27
3.25
3.18
2.96
2.62
2.33
2.33
2.76
3.59
4.59
5.47
5.99
6.03
5.66
5.05
4.37
3.75
3.22
2.73
2.15
1.34
0.14
-1.51
-3.62
-6.03
-8.56
-11.04
-13.40
-15.72
-18.13
-20.82
-23.82
-27.08
-30.43
-33.72
-36.87
-39.88
-42.82
-45.75
-48.81
-52.23
-56.29
-61.24
-66.99
-72.92
-77.86
-80.31
-78.98
-73.30
-63.68
-51.39
-38.17
-25.66
-15.01
-6.77
-0.91
2.96
5.46
7.24
8.96
11.13
14.00
17.58
21.54
25.41
28.73
31.11
32.43
32.82
32.65
32.41
32.58
33.45
35.00
36.95
38.86
40.30
41.03
41.05
40.49
39.56
38.40
37.09
35.69
34.24
32.79
31.34
29.84
28.21
26.43
24.57
22.78
21.27
20.15
19.42
18.92
18.48
17.96
17.35
16.69
16.05
15.43
14.81
14.17
13.50
12.83
12.15
11.37
10.34
8.85
6.83
4.33
1.58
-1.14
-3.63
-5.85
-7.93
-10.06
-12.36
-14.81
-17.24
-19.43
-21.23
-22.64
-23.84
-25.09
-26.66
-28.70
-31.21
-34.04
-36.97
-39.80
-42.43
-44.95
-47.58
-50.69
-54.68
-59.84
-66.20
-73.36
-80.38
-85.92
-88.50
-86.94
-80.76
-70.41
-57.14
-42.67
-28.67
-16.36
-6.40
1.16
6.65
10.63
13.71
16.44
19.20
22.20
25.41
28.58
31.41
33.55
34.81
35.19
34.92
34.43
34.24
34.73
36.01
37.84
39.77
41.34
42.27
42.55
42.40
42.09
41.74
41.34
40.74
39.80
38.44
36.76
34.89
33.00
31.20
29.53
27.98
26.53
25.12
23.74
22.38
21.04
19.71
18.40
17.11
15.87
14.75
13.78
12.99
12.30
11.60
10.76
9.68
8.37
6.86
5.23
3.51
1.68
-0.30
-2.44
-4.70
-6.99
-9.22
-11.34
-13.39
-15.42
-17.52
-19.77
-22.24
-24.98
-28.02
-31.34
-34.79
-38.20
-41.40
-44.34
-47.21
-50.39
-54.40
-59.63
-66.13
-73.35
-80.19
-85.15
-86.69
-83.74
-76.05
-64.26
-49.76
-34.28
-19.43
-6.42
4.10
12.02
17.61
21.38
23.97
25.99
27.92
29.95
32.02
33.85
35.18
35.86
35.97
35.81
35.71
35.98
36.73
37.94
39.40
40.85
41.95
42.43
42.09
40.94
39.17
37.11
35.11
33.39
31.97
30.74
29.54
28.24
26.79
25.24
23.70
22.22
20.86
19.64
18.57
17.67
16.90
16.26
15.71
15.20
14.70
14.17
13.55
12.76
11.79
10.64
9.39
8.16
7.04
6.03
5.02
3.86
2.33
0.34
-2.10
-4.86
-7.71
-10.49
-13.07
-15.48
-17.86
-20.37
-23.17
-26.32
-29.79
-33.41
-37.04
-40.58
-44.07
-47.66
-51.67
-56.43
-62.25
-69.18
-76.86
-84.45
-90.62
-93.89
-93.00
-87.32
-77.15
-63.62
-48.37
-33.11
-19.21
-7.47
1.86
8.92
14.08
17.78
20.55
22.94
25.41
28.22
31.38
34.56
37.26
39.05
39.73
39.51
38.84
38.29
38.29
38.98
40.24
41.76
43.20
44.27
44.81
44.73
44.03
42.83
41.34
39.78
38.35
37.13
36.06
34.98
33.73
32.23
30.48
28.55
26.52
24.47
22.49
20.66
19.03
17.60
16.35
15.19
14.06
12.96
11.92
11.00
10.16
9.30
8.33
7.23
6.08
5.05
4.25
3.65
3.04
2.11
0.68
-1.28
-3.55
-5.86
-7.98
-9.83
-11.53
-13.28
-15.27
-17.68
-20.60
-24.05
-27.94
-32.04
-36.08
-39.76
-42.95
-45.77
-48.59
-51.92
-56.18
-61.53
-67.63
-73.65
-78.30
-80.16
-78.03
-71.34
-60.41
-46.33
-30.73
-15.26
-1.22
10.66
20.22
27.67
33.48
38.16
42.25
46.13
49.95
53.57
56.58
58.53
59.12
58.34
56.46
53.84
50.81
47.62
44.39
41.20
38.09
35.03
31.87
28.42
24.56
20.41
16.36
12.95
10.66
9.66
9.79
10.65
11.79
12.86
13.69
14.21
14.41
14.22
13.55
12.28
10.35
7.75
4.58
0.93
-3.10
-7.44
-12.05
-16.85
-21.77
-26.73
-31.59
-36.24
-40.48
-44.10
-46.93
-48.85
-49.89
-50.19
-49.86
-48.82
-46.76
-43.31
-38.29
-32.03
-25.37
-19.47
-15.34
-13.40
-13.43
-14.68
-16.33
-17.80
-18.93
-19.99
-21.47
-23.99
-28.14
-34.40
-42.94
-53.35
-64.49
-74.57
-81.47
-83.37
-79.31
-69.49
-55.26
-38.62
-21.72
-6.26
6.69
16.84
24.39
29.91
34.03
37.23
39.76
41.54
42.34
41.92
40.26
37.60
34.28
30.58
26.69
22.72
18.98
15.97
14.23
14.02
14.99
16.33
17.13
16.92
15.92
14.83
14.38
14.80
15.68
16.21
15.67
13.81
10.92
7.72
4.93
3.11
2.59
3.46
5.71
9.24
13.87
19.29
25.13
31.00
36.59
41.69
46.23
50.24
53.75
56.67
58.86
60.10
60.23
59.18
56.99
53.75
49.49
44.18
37.81
30.40
22.12
13.28
4.27
-4.53
-12.81
-20.37
-27.11
-32.99
-38.06
-42.37
-45.98
-48.98
-51.57
-54.07
-56.96
-60.76
-65.80
-71.84
-78.01
-82.86
-84.78
-82.56
-75.81
-65.18
-52.05
-38.13
-24.97
-13.60
-4.48
2.37
7.24
10.62
13.06
15.12
17.26
19.74
22.58
25.50
28.08
29.93
30.79
30.67
29.86
28.82
28.05
27.92
28.58
29.89
31.51
32.99
33.99
34.29
33.92
33.05
31.92
30.76
29.69
28.74
27.87
26.99
26.05
25.04
23.99
22.94
21.91
20.93
20.02
19.19
18.43
17.72
17.05
16.36
15.65
14.90
14.12
13.33
12.50
11.60
10.61
9.55
8.45
7.36
6.32
5.29
4.18
2.86
1.22
-0.80
-3.19
-5.85
-8.55
-11.10
-13.31
-15.16
-16.80
-18.49
-20.53
-23.11
-26.25
-29.81
-33.58
-37.36
-41.06
-44.65
-48.19
-51.87
-55.93
-60.63
-66.01
-71.70
-76.79
-80.01
-80.05
-76.08
-68.02
-56.67
-43.47
-30.01
-17.66
-7.27
0.85
6.87
11.21
14.33
16.69
18.68
20.55
22.44
24.36
26.22
27.82
28.92
29.35
29.13
28.46
27.77
27.51
27.97
29.16
30.83
32.57
34.00
34.89
35.19
34.96
34.31
33.36
32.18
30.86
29.50
28.15
26.82
25.47
24.01
22.43
20.75
19.10
17.60
16.33
15.34
14.60
14.04
13.54
13.00
12.33
11.50
10.56
9.61
8.69
7.79
6.81
5.66
4.28
2.75
1.18
-0.32
-1.72
-3.11
-4.62
-6.35
-8.29
-10.36
-12.41
-14.35
-16.25
-18.24
-20.56
-23.33
-26.54
-30.02
-33.48
-36.67
-39.48
-42.01
-44.52
-47.38
-50.97
-55.60
-61.33
-67.89
-74.56
-80.18
-83.38
-82.97
-78.38
-69.90
-58.66
-46.27
-34.34
-24.09
-16.10
-10.40
-6.64
-4.32
-2.89
-1.82
-0.68
0.78
2.58
4.53
6.33
7.73
8.69
9.40
10.29
11.81
14.30
17.89
22.43
27.61
33.02
38.29
43.17
47.56
51.46
54.92
57.89
60.30
61.97
62.74
62.47
61.15
58.84
55.67
51.88
47.73
43.53
39.59
36.13
33.29
31.04
29.16
27.39
25.46
23.27
20.87
18.43
16.10
13.96
11.94
9.94
7.91
5.88
3.96
2.24
0.72
-0.74
-2.30
-4.13
-6.24
-8.54
-10.89
-13.13
-15.26
-17.31
-19.39
-21.63
-24.10
-26.79
-29.63
-32.50
-35.26
-37.77
-39.97
-41.89
-43.73
-45.85
-48.71
-52.67
-57.74
-63.45
-68.78
-72.38
-72.99
-69.83
-62.85
-52.80
-40.93
-28.67
-17.25
-7.52
0.16
5.80
9.69
12.29
14.12
15.65
17.23
19.07
21.24
23.66
26.15
28.50
30.50
32.06
33.22
34.13
35.02
36.09
37.39
38.78
39.97
40.67
40.68
39.96
38.67
37.04
35.30
33.63
32.11
30.77
29.55
28.36
27.07
25.58
23.81
21.80
19.66
17.56
15.62
13.92
12.49
11.32
10.37
9.61
8.93
8.19
7.30
6.17
4.82
3.31
1.77
0.33
-0.86
-1.75
-2.33
-2.76
-3.28
-4.14
-5.49
-7.28
-9.24
-11.06
-12.53
-13.67
-14.66
-15.84
-17.45
-19.60
-22.28
-25.33
-28.56
-31.74
-34.68
-37.18
-39.22
-40.96
-42.78
-45.17
-48.61
-53.28
-58.92
-64.71
-69.40
-71.63
-70.26
-64.76
-55.44
-43.36
-30.02
-16.92
-5.22
4.49
12.07
17.76
21.87
24.73
26.63
27.83
28.57
29.05
29.40
29.60
29.57
29.18
28.38
27.22
25.91
24.73
23.92
23.67
23.97
24.70
25.61
26.43
26.97
27.10
26.85
26.34
25.74
25.19
24.72
24.23
23.55
22.52
21.11
19.46
17.78
16.28
15.03
13.97
12.94
11.85
10.69
9.56
8.56
7.75
7.07
6.45
5.82
5.20
4.63
4.12
3.65
3.16
2.58
1.88
1.08
0.17
-0.85
-2.05
-3.49
-5.26
-7.38
-9.74
-12.19
-14.48
-16.44
-18.01
-19.32
-20.63
-22.20
-24.26
-26.80
-29.66
-32.58
-35.29
-37.69
-39.85
-42.01
-44.53
-47.76
-51.89
-56.80
-61.97
-66.41
-68.92
-68.31
-63.91
-55.76
-44.72
-32.23
-19.89
-9.04
-0.42
5.86
10.16
13.05
15.06
16.58
17.87
19.10
20.36
21.65
22.87
23.83
24.33
24.28
23.75
23.01
22.44
22.36
22.95
24.14
25.63
27.04
28.00
28.32
27.98
27.12
25.93
24.56
23.09
21.49
19.70
17.65
15.37
12.90
10.34
7.82
5.47
3.38
1.58
-0.03
-1.62
-3.45
-5.72
-8.51
-11.63
-14.71
-17.32
-19.24
-20.56
-21.75
-23.49
-26.41
-30.84
-36.70
-43.41
-50.03
-55.41
-58.43
-58.21
-54.39
-47.06
-36.85
-24.68
-11.62
1.28
13.03
22.72
29.62
33.18
33.16
29.70
23.16
14.09
3.07
-9.24
-22.20
-35.16
-47.63
-59.49
-70.88
-81.84
-91.64
-98.40
-99.30
-91.69
-74.42
-48.87
-18.64
11.53
37.36
56.13
66.93
70.25
67.38
60.12
50.80
42.19
37.05
37.34
43.46
53.99
66.18
76.98
84.00
86.15
83.77
78.30
71.74
65.97
62.36
61.54
63.49
67.78
73.80
80.70
87.36
92.44
94.68
93.38
88.84
82.27
75.29
69.21
64.54
61.02
58.12
55.65
53.96
53.81
55.83
60.03
65.62
71.21
75.36
77.03
75.91
72.45
67.50
61.88
56.06
49.99
43.28
35.50
26.44
16.25
5.29
-6.09
-17.76
-29.76
-42.12
-54.58
-66.56
-77.35
-86.43
-93.66
-99.33
-103.84
-107.50
-110.39
-112.59
-114.43
-116.53
-119.56
-123.74
-128.47
-132.31
-133.46
-130.47
-122.87
-111.30
-97.29
-82.59
-68.62
-56.16
-45.40
-36.21
-28.48
-22.18
-17.37
-13.98
-11.67
-9.90
-8.08
-5.79
-2.94
0.21
3.32
6.06
8.31
10.17
11.88
13.66
15.55
17.45
19.09
20.23
20.72
20.55
19.86
18.81
17.51
16.01
14.28
12.36
10.29
8.16
5.97
3.65
1.12
-1.58
-4.18
-6.27
-7.41
-7.35
-6.13
-4.06
-1.56
1.04
3.56
5.99
8.36
10.66
12.86
14.91
16.81
18.57
20.20
21.72
23.11
24.40
25.60
26.70
27.53
27.72
26.80
24.31
19.98
13.85
6.23
-2.41
-11.62
-21.07
-30.57
-40.09
-49.67
-59.30
-68.78
-77.64
-85.13
-90.32
-92.37
-90.75
-85.52
-77.37
-67.40
-56.90
-47.04
-38.62
-32.07
-27.46
-24.58
-23.02
-22.28
-21.80
-21.12
-20.00
-18.40
-16.51
-14.58
-12.74
-10.91
-8.83
-6.18
-2.72
1.53
6.38
11.50
16.59
21.44
25.90
29.86
33.22
35.89
37.83
39.14
39.99
40.58
41.07
41.49
41.74
41.69
41.21
40.27
38.95
37.40
35.84
34.43
33.23
32.21
31.25
30.23
29.08
27.85
26.60
25.44
24.46
23.71
23.20
22.90
22.73
22.50
22.00
21.04
19.68
18.18
16.98
16.45
16.66
17.28
17.75
17.52
16.31
14.17
11.37
8.26
5.12
2.08
-0.73
-3.26
-5.59
-7.96
-10.82
-14.61
-19.44
-24.88
-29.91
-33.27
-33.82
-31.08
-25.29
-17.32
-8.30
0.73
8.95
15.80
20.89
23.91
24.73
23.54
20.88
17.58
14.45
12.04
10.42
9.26
8.05
6.35
4.07
1.41
-1.23
-3.45
-5.05
-6.04
-6.56
-6.80
-6.82
-6.63
-6.22
-5.66
-5.13
-4.92
-5.25
-6.19
-7.60
-9.15
-10.50
-11.44
-11.95
-12.19
-12.32
-12.38
-12.25
-11.70
-10.51
-8.60
-6.11
-3.29
-0.45
2.19
4.60
6.86
9.17
11.59
14.06
16.24
17.79
18.43
18.20
17.37
16.36
15.48
14.79
14.09
13.11
11.63
9.70
7.50
5.28
3.22
1.35
-0.42
-2.26
-4.33
-6.75
-9.54
-12.60
-15.72
-18.66
-21.24
-23.44
-25.38
-27.23
-29.16
-31.32
-33.85
-36.99
-40.88
-45.44
-50.11
-53.78
-55.10
-52.90
-46.75
-37.21
-25.58
-13.43
-2.00
8.15
17.06
25.01
32.12
38.24
43.10
46.51
48.61
49.70
50.05
49.68
48.34
45.71
41.69
36.60
31.10
25.94
21.73
18.69
16.75
15.60
15.01
14.82
15.07
15.81
17.18
19.28
22.25
26.19
31.10
36.81
42.92
48.87
54.13
58.34
61.46
63.67
65.28
66.44
67.09
66.92
65.57
62.62
57.84
51.12
42.57
32.50
21.49
10.34
-0.00
-8.70
-15.16
-19.16
-20.87
-20.84
-19.85
-18.90
-19.07
-21.17
-25.52
-31.78
-39.08
-46.42
-53.13
-59.12
-64.84
-70.79
-77.18
-83.54
-88.95
-92.40
-93.36
-92.02
-89.24
-86.24
-84.16
-83.76
-85.26
-88.48
-92.98
-98.21
-103.51
-108.01
-110.52
-109.59
-103.86
-92.57
-75.96
-55.43
-33.23
-11.82
6.82
21.51
32.01
38.65
42.03
42.74
41.29
38.23
34.25
30.12
26.58
24.09
22.69
22.07
21.67
21.00
19.87
18.54
17.66
17.90
19.70
22.98
27.23
31.68
35.63
38.69
40.74
41.81
41.84
40.59
37.72
32.98
26.35
18.11
8.77
-1.07
-10.84
-20.13
-28.67
-36.40
-43.33
-49.49
-54.84
-59.29
-62.77
-65.30
-67.06
-68.35
-69.55
-70.88
-72.25
-73.19
-73.06
-71.25
-67.66
-62.85
-57.93
-54.22
-52.66
-53.49
-56.11
-59.48
-62.47
-64.35
-64.81
-63.80
-61.26
-57.09
-51.27
-44.25
-36.97
-30.70
-26.41
-24.20
-23.01
-20.97
-16.19
-7.58
4.69
19.43
35.14
50.76
66.05
81.28
96.61
111.58
125.03
135.43
141.47
142.53
138.78
131.03
120.42
108.19
95.39
82.92
71.43
61.39
53.06
46.56
41.99
39.32
38.39
38.76
39.83
40.95
41.78
42.41
43.26
44.78
47.08
49.74
51.98
53.01
52.47
50.63
48.21
45.93
44.19
42.85
41.48
39.71
37.46
34.98
32.64
30.66
28.96
27.32
25.48
23.32
20.93
18.48
16.10
13.86
11.78
9.87
8.19
6.71
5.29
3.69
1.68
-0.82
-3.71
-6.76
-9.72
-12.52
-15.21
-17.93
-20.68
-23.39
-25.90
-28.10
-30.04
-31.88
-33.74
-35.66
-37.56
-39.36
-41.13
-43.18
-45.94
-49.76
-54.62
-60.00
-64.86
-67.90
-67.90
-64.09
-56.39
-45.46
-32.55
-19.18
-6.74
3.75
11.83
17.50
21.12
23.18
24.18
24.54
24.58
24.48
24.28
23.93
23.28
22.20
20.65
18.78
16.86
15.32
14.49
14.55
15.40
16.74
18.19
19.40
20.23
20.68
20.88
20.97
21.03
21.03
20.90
20.51
19.85
18.95
17.96
17.01
16.23
15.63
15.11
14.54
13.76
12.74
11.55
10.37
9.36
8.57
7.91
7.18
6.14
4.65
2.69
0.41
-1.98
-4.26
-6.31
-8.16
-9.99
-12.06
-14.59
-17.74
-21.43
-25.44
-29.40
-32.96
-35.99
-38.59
-41.07
-43.85
-47.31
-51.69
-57.02
-63.01
-68.95
-73.76
-76.14
-74.97
-69.65
-60.37
-48.17
-34.60
-21.20
-9.20
0.78
8.64
14.57
18.89
21.95
24.15
25.92
27.64
29.58
31.70
33.72
35.23
35.87
35.54
34.47
33.12
32.04
31.62
32.03
33.13
34.60
36.07
37.29
38.09
38.46
38.44
38.09
37.43
36.50
35.34
34.04
32.73
31.48
30.32
29.17
27.94
26.59
25.14
23.79
22.75
22.23
22.29
22.79
23.41
23.76
23.51
22.50
20.76
18.48
15.84
12.98
9.90
6.52
2.76
-1.40
-5.84
-10.42
-14.92
-19.17
-23.06
-26.48
-29.45
-32.05
-34.46
-36.87
-39.42
-42.06
-44.59
-46.69
-48.15
-48.97
-49.38
-49.81
-50.73
-52.53
-55.39
-59.22
-63.53
-67.49
-69.97
-69.80
-66.16
-58.81
-48.28
-35.70
-22.50
-10.00
0.89
9.73
16.51
21.46
24.93
27.39
29.32
31.14
33.07
35.04
36.75
37.76
37.74
36.71
35.02
33.27
32.06
31.75
32.36
33.61
35.11
36.49
37.52
38.09
38.17
37.72
36.71
35.16
33.12
30.76
28.28
25.82
23.41
20.99
18.47
15.86
13.25
10.87
8.92
7.46
6.43
5.67
5.02
4.42
3.88
3.48
3.26
3.23
3.36
3.58
3.82
3.89
3.55
2.54
0.74
-1.73
-4.56
-7.31
-9.65
-11.45
-12.82
-14.02
-15.34
-17.00
-19.11
-21.61
-24.34
-27.06
-29.47
-31.34
-32.59
-33.39
-34.15
-35.40
-37.63
-41.12
-45.69
-50.64
-54.88
-57.21
-56.76
-53.27
-47.21
-39.56
-31.45
-23.81
-17.20
-11.80
-7.54
-4.28
-1.86
-0.13
1.00
1.53
1.39
0.49
-1.14
-3.32
-5.75
-8.16
-10.41
-12.48
-14.29
-15.57
-15.91
-14.96
-12.66
-9.38
-5.72
-2.16
1.31
5.12
9.89
15.92
22.96
30.24
36.78
41.88
45.26
47.04
47.50
46.76
44.79
41.54
37.16
32.06
26.84
21.95
17.52
13.32
8.97
4.24
-0.83
-5.86
-10.44
-14.20
-17.01
-18.92
-19.99
-20.28
-19.84
-18.80
-17.39
-15.91
-14.58
-13.46
-12.43
-11.32
-10.04
-8.75
-7.79
-7.53
-8.19
-9.75
-11.91
-14.33
-16.76
-19.21
-22.04
-25.73
-30.73
-37.14
-44.59
-52.16
-58.57
-62.44
-62.62
-58.53
-50.21
-38.38
-24.19
-8.97
5.99
19.63
31.26
40.62
47.95
53.90
59.36
65.11
71.59
78.63
85.56
91.49
95.61
97.51
97.26
95.27
92.23
88.89
85.93
83.80
82.59
81.88
80.83
78.34
73.39
65.37
54.29
40.74
25.74
10.40
-4.44
-18.25
-30.88
-42.27
-52.38
-60.99
-67.88
-72.89
-76.08
-77.74
-78.28
-78.06
-77.23
-75.73
-73.47
-70.46
-66.95
-63.35
-60.14
-57.60
-55.70
-54.08
-52.22
-49.61
-45.99
-41.49
-36.57
-31.86
-27.85
-24.75
-22.39
-20.44
-18.56
-16.57
-14.57
-12.77
-11.33
-10.21
-9.19
-8.03
-6.71
-5.53
-5.03
-5.74
-8.07
-12.21
-18.19
-26.03
-35.54
-46.18
-56.82
-65.95
-72.13
-74.55
-73.35
-69.46
-64.00
-57.71
-50.65
-42.50
-33.12
-22.95
-12.94
-4.09
3.18
9.19
14.77
20.64
26.93
33.06
38.09
41.27
42.42
42.04
40.97
40.00
39.56
39.58
39.71
39.52
38.81
37.66
36.38
35.33
34.68
34.36
34.05
33.42
32.23
30.59
28.84
27.37
26.45
26.08
25.99
25.83
25.32
24.41
23.27
22.14
21.24
20.64
20.21
19.75
19.08
18.12
16.95
15.69
14.39
13.05
11.55
9.85
8.01
6.22
4.65
3.32
1.99
0.31
-2.03
-5.06
-8.53
-12.06
-15.31
-18.19
-20.86
-23.59
-26.69
-30.41
-34.96
-40.46
-46.80
-53.41
-59.24
-62.95
-63.27
-59.57
-52.06
-41.80
-30.30
-19.03
-9.02
-0.74
5.79
10.86
14.84
18.09
20.94
23.63
26.28
28.88
31.30
33.33
34.78
35.49
35.49
34.91
34.03
33.20
32.68
32.62
32.94
33.40
33.64
33.33
32.25
30.34
27.71
24.58
21.25
17.99
15.06
12.55
10.50
8.81
7.38
6.15
5.10
4.25
3.67
3.37
3.38
3.71
4.39
5.44
6.80
8.33
9.79
11.02
11.96
12.80
13.85
15.37
17.41
19.76
22.01
23.78
24.86
25.29
25.25
24.94
24.41
23.51
22.01
19.61
16.14
11.54
5.89
-0.59
-7.59
-14.82
-21.94
-28.70
-34.92
-40.58
-45.90
-51.33
-57.39
-64.35
-71.92
-79.09
-84.29
-85.91
-82.91
-75.25
-63.94
-50.69
-37.26
-25.01
-14.63
-6.27
0.29
5.38
9.44
12.92
16.27
19.85
23.78
27.93
32.00
35.61
38.45
40.44
41.69
42.52
43.33
44.45
45.98
47.77
49.43
50.51
50.70
49.91
48.28
46.05
43.51
40.89
38.44
36.28
34.45
32.78
30.91
28.49
25.34
21.57
17.54
13.70
10.37
7.65
5.52
3.88
2.61
1.67
0.92
0.21
-0.57
-1.42
-2.19
-2.67
-2.69
-2.25
-1.51
-0.70
0.05
0.67
1.27
2.01
3.02
4.34
5.91
7.50
8.82
9.58
9.58
8.71
6.90
4.09
0.22
-4.76
-10.77
-17.71
-25.55
-34.47
-44.74
-56.26
-68.30
-79.43
-88.00
-92.86
-93.94
-92.23
-89.08
-85.42
-81.18
-75.47
-67.20
-55.79
-41.50
-25.24
-8.05
9.23
26.07
41.98
56.33
68.44
77.76
84.14
87.81
89.24
88.85
86.97
83.82
79.75
75.22
70.78
66.70
62.82
58.51
52.98
45.70
36.73
26.67
16.30
6.12
-3.88
-14.15
-25.13
-36.95
-49.23
-61.34
-72.69
-82.99
-92.19
-100.27
-106.91
-111.46
-113.11
-111.47
-106.85
-100.39
-93.48
-87.14
-81.49
-75.69
-68.40
-58.60
-46.17
-32.00
-17.58
-4.22
7.49
17.80
27.35
36.67
45.73
54.03
60.87
65.81
68.84
70.34
70.76
70.38
69.22
67.11
63.88
59.55
54.32
48.56
42.66
36.93
31.47
26.20
20.78
14.91
8.39
1.30
-6.07
-13.36
-20.44
-27.45
-34.74
-42.51
-50.46
-57.71
-62.98
-65.06
-63.35
-58.03
-50.02
-40.63
-31.12
-22.43
-15.09
-9.23
-4.73
-1.37
1.13
3.04
4.55
5.81
6.92
7.95
8.99
10.08
11.23
12.34
13.29
14.03
14.67
15.45
16.63
18.30
20.30
22.24
23.70
24.40
24.26
23.45
22.19
20.68
19.03
17.26
15.45
13.71
12.19
10.96
10.00
9.20
8.42
7.60
6.79
6.05
5.46
5.00
4.58
4.09
3.48
2.81
2.18
1.69
1.37
1.15
0.95
0.69
0.36
-0.00
-0.40
-0.87
-1.52
-2.43
-3.63
-5.04
-6.47
-7.75
-8.80
-9.72
-10.77
-12.23
-14.27
-16.86
-19.75
-22.61
-25.13
-27.18
-28.88
-30.58
-32.79
-35.98
-40.41
-45.90
-51.81
-57.06
-60.39
-60.73
-57.54
-50.98
-41.89
-31.51
-21.11
-11.70
-3.84
2.32
6.95
10.40
13.10
15.44
17.76
20.28
23.03
25.85
28.45
30.46
31.62
31.85
31.30
30.29
29.22
28.41
28.03
28.05
28.31
28.63
28.85
28.91
28.74
28.31
27.57
26.49
25.10
23.50
21.83
20.20
18.68
17.24
15.84
14.52
13.37
12.50
11.97
11.68
11.49
11.23
10.80
10.24
9.64
9.13
8.71
8.30
7.73
6.91
5.78
4.45
3.08
1.86
0.88
0.14
-0.48
-1.20
-2.25
-3.75
-5.70
-7.92
-10.16
-12.20
-13.97
-15.56
-17.19
-19.05
-21.28
-23.93
-26.90
-30.05
-33.17
-36.07
-38.58
-40.69
-42.56
-44.58
-47.20
-50.81
-55.52
-61.01
-66.52
-70.90
-72.94
-71.66
-66.65
-58.24
-47.39
-35.47
-23.85
-13.51
-4.93
1.88
7.20
11.36
14.63
17.18
19.22
20.97
22.70
24.60
26.64
28.60
30.15
30.98
31.10
30.76
30.40
30.42
31.05
32.18
33.51
34.71
35.56
36.00
36.10
35.99
35.75
35.40
34.87
34.06
32.87
31.25
29.23
26.93
24.50
22.12
19.92
18.00
16.42
15.18
14.23
13.46
12.77
12.06
11.31
10.55
9.83
9.14
8.42
7.57
6.58
5.54
4.62
3.94
3.41
2.73
1.53
-0.38
-2.89
-5.61
-8.10
-10.04
-11.48
-12.70
-14.05
-15.80
-18.04
-20.64
-23.43
-26.23
-28.92
-31.45
-33.83
-36.14
-38.58
-41.42
-44.93
-49.21
-53.98
-58.56
-61.92
-62.94
-60.77
-55.15
-46.51
-35.85
-24.52
-13.72
-4.38
3.05
8.46
12.03
14.12
15.17
15.68
16.06
16.59
17.27
17.91
18.27
18.16
17.65
17.04
16.68
16.93
17.90
19.54
21.61
23.85
26.02
27.92
29.40
30.34
30.71
30.60
30.15
29.57
28.99
28.45
27.85
27.09
26.07
24.78
23.26
21.63
20.03
18.60
17.44
16.60
16.02
15.54
14.98
14.21
13.16
11.91
10.62
9.46
8.55
7.88
7.35
6.78
5.95
4.73
3.08
1.10
-1.00
-3.00
-4.75
-6.26
-7.70
-9.28
-11.15
-13.25
-15.31
-16.95
-17.83
-17.89
-17.44
-17.12
-17.65
-19.58
-23.02
-27.55
-32.33
-36.28
-38.36
-37.74
-33.98
-26.98
-16.97
-4.36
10.23
26.00
41.89
56.61
68.83
77.37
81.47
81.03
76.60
69.25
60.07
49.85
38.81
26.64
12.66
-3.99
-23.90
-47.06
-72.62
-98.75
-122.60
-140.75
-149.74
-146.80
-130.79
-102.64
-65.48
-24.13
15.70
48.42
69.26
74.88
63.99
37.59
-0.75
-44.99
-87.12
-118.34
-130.69
-119.48
-84.91
-32.39
28.33
86.00
131.15
158.59
168.57
166.14
157.85
149.14
142.68
137.83
132.28
123.80
111.33
95.39
78.44
62.75
50.17
42.34
39.86
42.49
48.95
56.28
60.25
57.66
45.26
21.45
-12.20
-51.47
-89.71
-119.25
-134.56
-134.71
-123.13
-109.81
-107.42
-119.21
-143.30
-170.17
-185.92
-180.24
-161.78
-136.03
-108.14
-81.89
-59.13
-37.72
-18.75
-5.09
-0.44
-7.19
-23.11
-44.37
-66.10
-83.46
-93.43
-95.25
-89.72
-79.45
-68.11
-58.01
-51.25
-48.18
-46.60
-42.97
-34.34
-19.87
-1.99
14.41
25.11
27.51
22.48
14.21
8.23
8.71
16.84
30.30
44.51
55.40
60.66
60.74
58.20
55.99
55.78
57.35
59.09
59.21
57.11
53.44
49.57
46.55
44.28
41.41
36.13
27.26
14.93
0.73
-13.14
-24.86
-33.76
-40.37
-45.94
-51.70
-58.37
-66.13
-74.67
-83.43
-91.78
-99.09
-104.95
-109.33
-112.67
-115.65
-118.81
-122.14
-125.06
-126.71
-126.47
-123.96
-118.83
-110.45
-98.09
-81.57
-62.04
-42.06
-24.81
-12.44
-4.60
1.84
11.61
28.96
55.69
90.46
129.55
168.58
204.13
234.51
259.55
279.81
295.89
308.28
317.62
324.98
331.81
339.08
345.96
348.92
342.04
318.88
275.32
211.83
134.04
51.03
-27.84
-95.92
-150.70
-193.09
-225.42
-249.55
-266.14
-275.14
-276.85
-272.59
-264.38
-254.04
-242.47
-229.38
-213.89
-195.31
-173.71
-149.89
-125.03
-100.08
-75.54
-51.41
-27.40
-3.14
21.88
48.36
77.15
109.04
144.23
182.08
221.01
258.99
294.27
325.74
352.82
374.64
389.24
393.44
383.71
357.74
315.99
262.23
202.47
143.22
89.29
42.78
3.31
-30.84
-61.15
-87.80
-109.56
-124.47
-130.86
-128.31
-117.89
-101.87
-82.99
-63.79
-46.33
-32.29
-23.13
-19.90
-22.65
-29.67
-37.39
-41.43
-38.60
-28.89
-16.22
-7.17
-8.08
-22.20
-48.18
-80.85
-113.84
-142.46
-165.48
-184.97
-204.17
-224.86
-245.78
-262.65
-270.23
-264.88
-246.32
-217.68
-183.77
-148.92
-115.55
-84.45
-55.78
-29.99
-7.73
11.25
29.15
49.84
77.17
112.47
152.96
191.99
221.14
233.26
224.74
196.50
153.21
101.77
49.46
2.50
-34.96
-61.26
-77.23
-85.55
-89.65
-92.47
-95.42
-98.11
-98.68
-94.63
-83.78
-65.04
-38.63
-6.11
29.71
65.25
96.73
120.91
135.89
141.57
139.59
132.46
122.40
110.26
95.39
76.52
52.90
25.32
-3.99
-32.10
-56.44
-75.36
-88.15
-94.64
-94.99
-89.80
-80.34
-68.57
-56.52
-45.71
-36.72
-29.49
-24.01
-21.07
-21.84
-26.84
-34.78
-42.44
-46.02
-43.22
-34.76
-24.17
-15.86
-12.63
-14.27
-18.05
-20.52
-19.63
-15.72
-11.19
-9.17
-11.90
-19.69
-30.64
-41.18
-47.34
-46.36
-38.03
-25.31
-13.54
-8.32
-13.43
-29.76
-55.87
-89.17
-127.01
-166.31
-202.41
-228.63
-237.17
-221.96
-181.33
-119.05
-42.62
40.07
123.38
204.07
278.99
342.88
388.53
409.50
403.93
376.55
337.14
296.46
261.89
235.20
213.47
191.57
165.14
131.80
91.01
43.63
-8.21
-60.74
-108.82
-146.90
-171.22
-181.50
-181.28
-176.92
-175.63
-184.10
-206.91
-245.36
-296.45
-352.42
-401.79
-432.29
-435.27
-409.34
-361.22
-303.08
-247.28
-201.26
-165.29
-133.99
-100.55
-61.01
-15.78
31.65
78.06
122.73
167.29
213.08
258.58
298.52
325.40
332.86
318.23
282.81
229.93
162.59
82.71
-7.75
-104.26
-198.56
-280.02
-339.14
-371.25
-377.99
-365.76
-341.96
-311.65
-276.57
-236.73
-193.12
-149.48
-111.55
-84.47
-70.00
-65.56
-65.44
-63.67
-56.44
-43.08
-25.67
-7.01
10.74
26.79
41.39
55.07
68.30
81.56
95.59
111.17
128.41
146.11
161.91
173.36
179.26
180.43
179.34
178.51
179.00
179.64
177.61
170.10
155.99
136.78
116.17
98.42
86.41
80.36
77.88
75.15
68.87
57.76
43.23
28.85
18.99
17.23
25.12
41.86
64.67
89.76
113.56
133.97
151.15
167.30
185.45
207.56
232.82
257.20
274.48
278.46
265.26
234.70
190.16
137.32
82.32
30.31
-15.17
-52.23
-80.45
-100.44
-113.55
-121.54
-126.14
-128.76
-129.98
-128.84
-122.57
-107.27
-79.51
-38.57
12.29
66.32
115.42
153.12
176.80
187.88
190.07
187.17
181.25
172.69
161.29
147.12
130.38
110.32
84.72
50.76
7.31
-43.17
-94.12
-136.88
-164.07
-172.29
-163.00
-141.30
-113.48
-84.89
-59.35
-39.42
-27.00
-23.37
-28.39
-39.77
-52.84
-61.34
-59.01
-41.71
-9.16
34.38
80.78
120.61
146.40
155.46
150.71
139.13
128.47
124.03
126.85
133.99
140.39
140.90
132.14
113.58
87.82
60.13
36.96
23.78
22.83
31.88
44.85
54.10
53.54
41.07
19.38
-5.38
-26.19
-37.96
-39.34
-32.97
-24.19
-18.75
-20.44
-30.08
-45.92
-65.17
-85.59
-105.81
-124.78
-140.74
-151.17
-153.87
-148.56
-137.90
-126.82
-120.73
-123.29
-135.03
-153.42
-174.30
-193.58
-208.69
-219.14
-226.10
-231.53
-237.25
-243.90
-250.60
-255.04
-254.16
-245.34
-227.52
-202.00
-172.25
-142.64
-116.30
-93.24
-69.45
-37.76
9.81
78.86
169.80
276.61
387.85
489.62
569.34
619.08
637.36
629.04
603.60
572.28
545.10
528.23
522.63
524.27
526.14
521.14
504.81
477.11
441.95
404.94
370.50
339.49
308.74
273.01
227.64
170.91
104.61
32.97
-39.10
-106.99
-166.29
-212.12
-239.22
-243.40
-224.16
-186.38
-139.93
-96.75
-66.40
-52.58
-52.38
-58.71
-64.07
-63.95
-57.75
-47.57
-36.11
-25.24
-15.85
-8.26
-3.09
-1.14
-3.35
-9.71
-19.09
-29.66
-39.66
-48.25
-55.58
-62.76
-70.97
-81.64
-94.92
-109.63
-123.93
-136.34
-146.61
-155.45
-164.87
-176.61
-193.25
-215.62
-242.66
-272.14
-301.87
-330.83
-358.79
-388.18
-422.28
-467.27
-526.70
-599.23
-677.72
-750.64
-805.97
-833.99
-833.28
-808.94
-774.18
-741.38
-718.00
-705.08
-698.98
-695.32
-690.00
-683.92
-652.13
-580.86
-468.61
-328.31
-180.84
-44.67
58.26
131.67
182.25
216.25
235.18
241.40
240.06
236.43
235.53
240.44
253.51
272.95
296.41
319.17
338.40
353.43
365.57
377.38
391.31
410.19
433.38
458.36
479.18
489.89
486.48
468.23
437.77
399.39
357.94
315.72
273.98
233.22
195.39
164.21
143.65
135.79
138.73
147.02
152.93
150.55
138.13
118.92
99.14
84.70
78.74
80.81
88.28
98.40
110.16
124.03
140.02
156.08
168.13
172.54
168.79
160.51
153.82
153.68
161.11
173.32
186.67
200.06
216.13
238.86
269.32
302.56
328.25
335.12
316.61
274.01
215.28
150.46
86.52
25.04
-36.45
-101.21
-170.21
-241.25
-310.34
-373.79
-429.31
-475.92
-513.25
-541.15
-560.00
-571.08
-576.17
-576.43
-571.27
-558.43
-535.65
-502.73
-462.67
-420.66
-381.06
-344.66
-307.65
-263.73
-207.99
-140.41
-66.82
3.15
60.08
98.51
118.74
126.07
128.21
132.55
144.13
165.07
195.19
232.67
274.80
318.48
360.96
400.59
437.14
470.98
501.64
526.34
539.85
536.17
511.20
465.10
402.51
330.69
256.32
182.79
109.74
34.70
-44.11
-125.37
-203.98
-272.54
-323.65
-352.63
-358.96
-346.19
-320.13
-286.42
-248.94
-209.78
-170.54
-133.60
-102.21
-79.11
-64.63
-56.10
-49.12
-40.15
-28.27
-15.21
-3.32
6.34
14.83
24.02
34.45
44.25
49.85
48.29
39.24
25.52
11.55
1.16
-4.14
-5.31
-4.79
-5.04
-7.42
-11.89
-17.25
-21.74
-23.88
-23.16
-20.45
-17.59
-16.63
-18.95
-24.65
-32.63
-41.07
-47.83
-50.87
-48.59
-40.11
-25.94
-8.38
8.72
21.40
27.62
28.54
28.07
30.60
38.14
48.28
54.46
48.69
25.45
-15.24
-66.70
-117.38
-154.73
-169.45
-158.51
-125.70
-80.06
-32.62
7.25
34.18
47.41
49.79
46.04
40.90
38.23
40.64
49.23
63.25
79.95
95.04
104.16
104.75
97.42
85.77
74.71
67.98
66.91
70.84
78.93
91.87
111.70
139.57
173.41
207.22
233.26
245.94
245.07
236.14
227.02
223.11
224.10
224.15
215.28
191.58
151.97
99.84
40.53
-21.32
-82.83
-142.26
-197.74
-246.83
-287.32
-318.39
-341.26
-358.61
-372.79
-384.35
-391.68
-391.81
-382.31
-362.90
-336.21
-307.19
-281.45
-262.83
-251.57
-243.76
-232.58
-211.19
-176.07
-129.07
-76.91
-28.07
10.53
35.80
48.20
49.49
41.06
23.82
0.09
-24.93
-43.93
-51.28
-47.58
-41.33
-45.69
-71.62
-120.84
-183.45
-241.95
-279.40
-287.28
-268.56
-234.36
-196.97
-163.67
-134.29
-103.54
-66.11
-20.36
31.01
83.41
133.35
179.91
223.95
265.73
303.64
335.11
358.77
376.48
392.52
410.49
429.79
444.23
444.83
425.03
385.14
333.04
279.97
234.55
198.94
169.38
140.43
109.61
79.31
54.69
40.56
37.19
39.50
39.04
27.56
0.25
-42.35
-94.43
-146.59
-187.15
-206.51
-200.30
-170.75
-125.57
-74.48
-25.22
18.40
56.52
93.33
132.85
176.93
225.22
276.24
328.88
382.41
435.40
484.44
526.36
557.38
574.42
577.11
568.93
556.96
549.52
552.60
547.50
516.00
444.78
332.67
192.59
45.22
-90.43
-203.08
-290.16
-350.76
-389.47
-409.65
-413.98
-406.68
-394.16
-383.41
-380.02
-386.75
-400.58
-412.94
-412.91
-391.67
-345.66
-278.15
-197.75
-114.51
-41.96
8.52
33.57
38.72
34.09
29.13
25.91
22.37
15.41
2.80
-15.50
-36.17
-55.49
-71.27
-84.07
-96.60
-111.77
-131.06
-153.23
-173.47
-185.07
-183.02
-167.20
-143.53
-121.99
-112.26
-119.92
-144.66
-180.69
-219.74
