1677138482.00
64.000000
-0.00
-0.00
-0.00
-0.00
-0.00
-0.00
-0.00
-0.00
-0.00
-0.00
0.00
0.01
0.01
-0.00
-0.03
-0.05
-0.05
0.00
0.13
0.36
0.66
1.01
1.37
1.72
2.06
2.40
2.79
3.24
3.80
4.42
5.06
5.66
6.20
6.68
7.15
7.68
8.31
9.14
10.09
11.04
11.88
12.56
13.14
13.76
14.65
15.96
17.91
20.32
22.90
25.38
27.58
29.57
31.68
34.32
37.81
42.54
48.15
54.10
59.83
64.97
69.58
74.14
79.34
85.71
93.76
103.00
112.62
121.73
129.77
136.75
143.30
150.75
157.77
166.64
177.95
191.79
206.97
220.57
228.25
225.36
208.53
176.87
132.76
80.05
23.07
-34.94
-92.44
-149.16
-205.23
-260.37
-313.74
-363.87
-409.83
-450.91
-486.50
-515.74
-537.23
-549.22
-549.96
-538.37
-514.21
-478.67
-433.88
-382.45
-327.02
-269.84
-212.63
-156.66
-102.95
-52.37
-5.90
35.58
71.43
101.35
125.50
144.38
158.69
169.15
176.37
180.75
182.57
182.07
179.51
175.23
169.65
163.18
156.15
148.81
141.30
133.69
126.02
118.33
110.69
103.16
95.80
88.68
81.83
75.24
68.95
62.95
57.25
51.86
46.80
42.05
37.63
33.51
29.70
26.20
22.97
20.03
17.37
14.97
12.83
10.94
9.29
7.85
6.61
5.56
4.69
3.97
3.39
2.93
2.59
2.35
2.19
2.12
2.11
2.16
2.26
2.40
2.57
2.79
3.04
3.32
3.63
3.99
4.38
4.81
5.27
5.77
6.32
6.92
7.59
8.33
9.15
10.00
10.87
11.72
12.55
13.41
14.35
15.45
16.72
18.16
19.75
21.41
23.07
24.72
26.40
28.19
30.10
32.10
34.04
35.65
36.64
36.66
35.59
33.44
30.40
26.75
22.70
18.46
14.08
9.62
5.11
0.93
-2.34
-4.07
-3.84
-1.69
1.74
5.24
7.43
6.99
3.48
-2.73
-10.65
-19.12
-27.30
-35.08
-43.05
-51.13
-60.39
-70.76
-81.14
-89.76
-95.29
-97.13
-95.97
-93.50
-91.68
-92.27
-96.14
-103.46
-113.48
-124.36
-132.76
-134.35
-125.30
-104.22
-73.55
-38.95
-7.68
15.25
27.95
32.06
31.08
28.06
24.21
19.07
12.04
3.77
-3.40
-6.36
-2.38
9.76
29.01
52.50
75.57
93.11
100.80
96.73
82.27
61.68
41.54
27.37
21.43
22.15
25.65
28.07
27.74
25.46
23.50
23.88
26.76
30.37
32.03
29.67
22.94
13.44
4.03
-2.33
-3.90
-0.98
4.40
9.16
10.65
7.62
0.52
-8.94
-18.50
-25.91
-29.07
-26.01
-15.52
2.07
23.73
43.83
55.50
53.35
36.40
9.44
-18.35
-37.26
-41.22
-30.73
-11.84
6.85
18.14
18.90
10.35
-3.69
-19.94
-35.79
-50.77
-65.09
-78.00
-87.54
-91.23
-87.51
-76.54
-60.55
-42.59
-25.52
-10.68
2.21
14.34
26.90
39.53
51.89
62.72
70.78
75.34
76.65
75.71
73.71
71.92
70.35
68.89
67.32
65.68
64.31
63.69
64.10
65.30
66.55
67.07
66.49
64.94
63.13
61.89
62.05
64.27
69.09
76.44
85.02
91.89
92.77
83.67
62.98
32.98
-0.52
-30.30
-50.78
-60.04
-60.04
-54.93
-48.52
-42.66
-37.17
-31.05
-23.86
-16.46
-10.26
-6.32
-4.63
-4.21
-3.73
-2.17
0.43
3.14
4.36
2.93
-1.62
-8.87
-17.62
-26.45
-34.16
-40.22
-44.18
-47.01
-49.44
-51.94
-54.68
-57.37
-59.53
-60.66
-60.78
-59.66
-57.78
-55.77
-54.30
-54.03
-55.12
-57.21
-59.47
-60.90
-60.69
-58.69
-55.40
-52.16
-50.22
-50.51
-53.24
-57.82
-63.10
-68.08
-72.32
-76.14
-79.48
-83.94
-90.32
-98.87
-109.47
-121.36
-132.61
-139.74
-138.87
-125.03
-96.53
-55.56
-8.09
38.08
76.31
103.51
120.53
129.98
135.86
139.97
142.19
141.64
137.98
132.04
125.48
119.61
114.68
110.33
105.12
97.47
87.19
75.14
62.83
51.77
42.92
36.40
31.75
27.87
23.85
19.37
14.63
10.27
7.07
5.61
6.09
8.27
11.40
14.66
17.39
19.24
20.34
21.23
22.70
25.47
29.97
36.02
43.00
49.94
56.12
61.22
65.53
69.75
74.62
80.78
88.70
98.80
111.04
124.73
137.97
147.75
150.71
144.65
129.72
108.79
86.53
67.11
53.29
45.57
42.77
43.19
45.77
50.43
57.67
67.85
79.94
92.37
103.50
112.09
117.54
119.61
118.07
111.86
103.58
93.85
83.03
71.52
59.83
48.50
37.86
27.87
18.03
7.61
-4.65
-19.24
-35.33
-50.63
-61.74
-65.38
-59.81
-45.85
-26.77
-7.64
7.24
15.67
17.93
15.82
11.27
5.17
-2.75
-13.29
-27.29
-44.52
-63.73
-82.97
-100.14
-113.33
-121.26
-123.56
-121.08
-116.03
-111.50
-110.67
-115.70
-126.97
-142.83
-159.88
-173.99
-181.63
-181.05
-173.01
-160.69
-148.90
-143.05
-147.90
-166.45
-198.76
-241.01
-285.40
-321.74
-340.48
-336.14
-309.25
-265.73
-213.94
-161.27
-112.01
-67.40
-27.13
9.39
42.56
72.98
101.63
129.12
154.56
174.97
186.41
186.12
174.43
154.99
133.11
113.43
98.46
88.39
81.92
76.96
70.74
59.98
41.40
13.16
-23.84
-65.66
-106.43
-140.20
-163.06
-173.98
-174.65
-168.47
-159.25
-150.13
-142.78
-136.99
-130.53
-119.89
-101.78
-74.80
-40.57
-3.47
31.00
58.37
76.82
87.43
92.98
96.09
97.84
97.47
93.37
84.59
71.92
58.12
46.93
41.81
44.66
55.24
71.36
89.56
106.17
118.22
124.33
125.04
122.83
121.33
124.25
134.03
150.98
173.16
197.27
219.92
238.97
254.06
266.26
277.05
287.27
296.45
302.97
304.69
299.75
287.19
266.96
239.53
205.46
165.08
118.81
67.70
13.79
-39.90
-90.21
-134.88
-173.53
-207.62
-239.50
-270.89
-301.71
-329.95
-352.54
-366.76
-370.99
-364.75
-348.06
-321.06
-284.16
-238.87
-188.52
-137.90
-92.01
-54.42
-26.42
-7.66
2.24
2.20
-10.14
-36.41
-74.79
-118.74
-158.28
-183.67
-189.57
-177.19
-153.08
-125.42
-99.83
-77.24
-54.68
-28.40
3.12
37.76
70.85
97.60
115.33
124.41
127.46
127.61
127.07
126.32
124.51
120.46
113.76
105.30
97.10
91.44
89.54
91.89
98.48
108.90
122.05
136.13
148.89
158.30
163.09
162.49
156.89
147.69
136.47
124.25
111.38
98.02
84.62
71.82
58.30
42.35
22.30
-3.41
-36.58
-78.66
-129.30
-184.74
-237.37
-281.32
-309.65
-315.66
-295.87
-253.12
-195.98
-135.09
-79.35
-34.26
-11.03
-15.72
-45.72
-91.09
-140.76
-186.39
-222.86
-247.77
-261.09
-278.84
-313.01
-363.62
-420.12
-471.45
-512.21
-542.09
-563.15
-578.04
-607.75
-666.45
-752.71
-852.18
-950.65
-1041.66
-1125.28
-1203.97
-1164.75
-954.97
-611.99
-235.89
90.43
336.21
506.75
619.73
693.14
741.47
757.19
736.20
687.18
629.14
578.36
541.80
518.39
504.36
496.53
479.08
442.31
388.92
331.66
283.08
249.91
232.40
227.08
227.90
219.57
192.52
149.14
103.41
69.75
60.01
75.84
109.75
148.97
176.62
182.54
166.57
136.31
100.57
65.62
34.40
9.20
-6.85
-12.05
-5.44
11.43
34.15
56.36
72.43
79.00
76.31
67.04
54.35
41.01
28.51
17.70
9.06
3.40
1.24
2.66
7.73
14.13
21.72
31.74
46.12
67.04
96.19
133.77
178.37
227.43
277.95
327.89
376.23
422.39
466.72
510.54
555.94
605.11
659.02
715.86
770.59
814.98
838.17
832.16
794.99
731.60
651.21
563.27
474.01
385.64
297.47
204.86
105.91
3.13
-97.38
-189.59
-270.46
-340.94
-403.70
-461.59
-521.72
-587.90
-659.89
-733.99
-806.33
-874.50
-937.23
-992.46
-1036.76
-1073.57
-1105.94
-1135.38
-1160.78
-1180.29
-1191.46
-1191.26
-1175.87
-1096.01
-925.64
-671.02
-371.77
-78.13
172.57
366.65
507.49
606.22
673.97
712.03
720.66
702.18
665.34
616.47
562.04
507.45
456.86
412.28
368.40
320.18
264.96
203.70
135.86
61.53
-20.67
-105.30
-187.93
-266.50
-336.72
-393.51
-415.83
-395.28
-337.91
-262.99
-191.34
-134.99
-95.97
-68.07
-44.15
-19.81
-0.21
15.12
29.15
46.65
72.49
109.78
161.13
226.64
304.72
382.43
446.10
494.45
524.80
534.43
513.17
460.14
382.12
291.61
201.08
121.79
55.72
2.45
-42.37
-83.55
-121.29
-152.75
-174.65
-186.67
-189.53
-187.93
-183.61
-176.90
-166.96
-152.30
-133.73
-114.69
-100.36
-93.74
-96.55
-108.77
-129.56
-156.16
-183.53
-206.66
-222.34
-230.95
-231.38
-222.37
-202.31
-170.19
-124.93
-66.33
4.10
82.66
164.32
245.20
321.33
389.00
444.29
484.09
507.24
513.70
503.53
462.97
386.01
277.46
152.32
28.60
-78.77
-160.41
-211.12
-235.77
-241.48
-235.31
-222.13
-203.80
-180.71
-152.54
-117.40
-72.90
-17.63
48.49
122.48
200.97
280.08
353.05
401.87
410.84
373.63
297.07
211.71
129.55
51.57
-25.22
-108.49
-199.59
-292.85
-377.61
-440.99
-471.95
-470.04
-449.73
-423.04
-396.29
-366.42
-327.38
-272.72
-199.11
-108.27
-8.13
90.62
178.38
247.24
293.76
319.50
329.43
328.79
320.22
302.67
275.68
242.19
206.63
173.98
147.84
129.58
118.28
111.52
106.16
100.66
95.27
89.53
81.03
65.71
40.25
4.46
-38.30
-82.72
-123.20
-154.96
-174.80
-180.52
-170.69
-145.37
-107.69
-64.06
-24.20
2.53
11.24
3.29
-14.70
-34.18
-48.41
-54.31
-52.70
-46.63
-39.29
-31.99
-24.03
-13.56
1.56
20.69
43.96
70.33
96.18
115.67
122.48
112.00
82.94
38.61
-12.16
-62.41
-104.84
-134.21
-148.38
-147.79
-134.80
-113.58
-88.81
-65.47
-47.34
-34.73
-25.42
-18.81
-16.46
-19.72
-30.83
-48.65
-67.42
-77.95
-71.52
-44.05
-0.47
47.81
88.57
114.48
126.01
129.35
131.87
138.04
147.07
153.95
153.06
141.04
117.95
87.26
54.47
24.82
1.70
-14.67
-26.53
-36.52
-45.77
-53.34
-56.88
-54.67
-47.29
-37.77
-30.21
-27.80
-30.80
-36.73
-42.04
-43.75
-40.73
-34.24
-26.92
-21.89
-21.84
-28.16
-40.65
-57.18
-73.56
-84.36
-84.71
-72.44
-49.03
-20.84
4.52
21.04
26.73
23.78
16.96
10.84
7.91
8.42
11.62
17.55
26.96
40.07
55.16
67.92
73.05
67.01
50.23
27.65
6.86
-5.15
-5.54
3.90
18.28
32.29
42.58
48.39
50.71
50.90
49.62
46.60
41.51
34.22
25.03
14.38
2.96
-8.80
-20.51
-31.34
-41.22
-49.77
-56.88
-62.64
-67.32
-71.21
-74.51
-77.07
-78.56
-79.24
-78.72
-77.38
-75.84
-74.78
-74.76
-76.41
-80.38
-86.83
-94.83
-101.48
-102.62
-94.17
-74.33
-45.07
-11.91
18.14
39.46
49.93
51.38
47.68
42.56
37.93
33.72
29.05
23.53
17.83
13.15
10.43
9.44
9.01
7.67
4.28
-1.28
-8.09
-14.84
-20.36
-24.18
-26.68
-28.80
-31.66
-35.96
-41.72
-48.24
-54.56
-59.77
-63.26
-64.94
-65.02
-63.70
-61.04
-56.81
-50.40
-41.31
-29.33
-14.73
1.82
19.27
36.56
52.68
66.21
76.93
84.80
89.94
92.55
92.96
91.52
88.64
84.78
80.74
76.60
72.45
68.39
64.50
60.84
57.41
54.29
51.43
48.80
46.36
44.07
41.88
39.82
37.95
36.29
34.89
33.73
32.64
31.39
29.76
27.58
24.82
21.92
18.78
15.55
12.28
8.89
5.20
1.08
-3.43
-7.98
-11.94
-14.69
-15.70
-14.87
-12.62
-9.75
-7.05
-5.02
-3.56
-2.06
0.32
4.29
9.92
16.61
23.29
28.92
32.88
35.33
37.11
39.29
42.85
48.58
56.81
67.21
78.37
87.64
91.61
87.25
73.43
51.74
26.63
3.84
-11.86
-18.53
-17.58
-12.63
-7.48
-4.23
-3.04
-2.23
0.36
5.92
14.19
23.85
33.40
41.88
49.00
54.46
58.11
59.92
60.14
59.51
59.13
59.94
61.77
65.77
69.83
70.79
65.96
54.32
36.84
15.84
-5.97
-26.42
-44.40
-60.98
-77.60
-95.12
-113.20
-130.61
-145.81
-157.43
-164.69
-168.04
-170.69
-175.81
-184.88
-197.05
-209.85
-220.38
-225.64
-222.24
-207.23
-180.56
-143.27
-97.39
-46.44
4.08
47.07
76.40
89.45
86.45
67.30
33.13
-12.67
-64.56
-116.29
-162.96
-201.26
-228.86
-227.42
-187.91
-116.98
-33.56
43.81
105.92
151.74
180.15
198.31
210.14
214.02
205.76
183.67
149.71
111.10
73.21
39.20
10.87
-12.34
-33.84
-58.88
-89.53
-123.64
-156.41
-183.98
-204.39
-216.98
-222.92
-209.10
-170.80
-113.48
-49.72
9.43
58.68
97.68
128.57
153.25
172.19
183.41
186.24
182.36
175.12
167.44
160.87
155.74
151.31
145.86
136.42
121.50
101.63
78.90
55.44
32.52
10.55
-6.43
-18.82
-28.69
-37.46
-45.33
-51.53
-55.30
-56.38
-55.16
-52.32
-49.13
-46.77
-45.77
-45.87
-46.32
-46.43
-45.88
-44.80
-43.58
-42.93
-43.35
-44.76
-46.70
-48.51
-49.77
-50.46
-50.85
-51.39
-52.55
-54.42
-56.75
-59.15
-61.13
-61.94
-60.58
-55.83
-48.10
-36.57
-22.03
-6.33
8.72
22.08
33.96
45.49
57.79
71.72
85.97
98.67
108.31
114.19
116.60
116.36
114.02
109.90
103.78
95.70
85.98
75.23
64.45
54.49
45.98
38.94
33.14
28.22
24.00
20.50
17.92
16.64
17.02
19.28
23.15
28.30
34.49
41.65
49.83
59.08
69.39
80.63
92.60
104.27
114.93
124.05
131.30
136.67
140.26
142.34
143.30
143.64
143.12
141.74
139.64
136.82
132.93
127.10
117.68
101.91
82.34
59.31
33.30
5.16
-24.01
-53.04
-80.94
-107.24
-131.67
-153.84
-173.85
-191.15
-204.82
-214.00
-218.24
-217.78
-213.82
-208.07
-202.36
-199.06
-200.03
-206.37
-217.84
-232.50
-246.78
-256.57
-258.28
-250.03
-232.70
-209.18
-183.27
-158.13
-135.20
-114.35
-95.39
-78.04
-61.95
-46.71
-31.73
-16.13
1.03
20.31
41.61
62.45
80.11
92.78
100.41
103.58
103.13
99.78
94.46
88.20
79.66
67.87
53.34
38.48
25.55
15.99
10.22
7.78
7.37
4.00
-7.00
-28.04
-58.06
-95.19
-137.62
-184.43
-235.22
-268.38
-269.29
-237.72
-188.39
-138.04
-97.04
-67.04
-44.89
-26.16
-7.56
9.60
23.30
28.22
28.48
28.83
34.19
47.80
70.97
102.48
137.73
172.54
204.73
234.00
258.28
276.83
289.12
299.65
308.43
312.62
310.31
300.81
285.64
261.79
229.33
188.58
139.84
82.90
17.00
-52.24
-116.37
-168.01
-204.56
-226.57
-236.91
-239.03
-236.43
-232.50
-228.99
-226.88
-225.60
-223.96
-219.87
-211.26
-199.85
-183.60
-162.72
-139.01
-115.79
-95.55
-79.02
-64.35
-47.56
-23.92
8.43
46.37
83.57
112.53
128.64
131.20
118.54
88.23
45.08
-2.86
-47.97
-82.42
-106.25
-119.90
-123.17
-116.12
-98.53
-68.59
-26.67
24.04
79.04
133.84
186.29
235.70
281.72
324.27
366.14
408.08
447.96
481.60
504.43
514.02
509.72
491.95
443.60
359.81
248.58
127.57
14.69
-79.54
-151.75
-203.64
-239.20
-262.84
-275.94
-280.24
-278.54
-274.67
-272.34
-273.05
-276.46
-281.18
-285.26
-284.91
-277.21
-262.02
-239.76
-212.06
-179.93
-144.33
-106.16
-66.36
-25.27
14.22
49.75
78.91
99.39
110.79
113.28
107.64
98.87
87.38
73.88
59.47
44.99
30.99
19.22
10.85
6.81
7.67
13.45
24.39
40.75
62.31
81.70
97.00
107.63
113.75
115.74
113.65
108.09
99.95
89.99
78.82
67.93
58.03
49.35
41.88
35.13
28.90
23.04
17.41
11.83
6.97
3.10
0.20
-1.82
-3.35
-4.62
-5.88
-7.33
-9.12
-10.73
-11.80
-12.14
-11.65
-10.56
-9.19
-7.97
-7.30
-7.36
-7.72
-7.81
-7.08
-5.19
-2.28
1.12
4.22
6.32
7.14
7.15
7.25
8.41
11.26
15.66
20.87
25.70
29.33
31.36
32.16
32.60
33.50
35.85
39.93
46.27
54.97
65.06
73.73
76.71
69.88
51.35
23.15
-9.07
-37.85
-57.30
-65.18
-63.40
-56.50
-49.17
-44.27
-42.34
-42.57
-43.82
-45.74
-48.63
-52.86
-58.52
-65.30
-72.69
-80.17
-87.98
-96.50
-106.81
-118.37
-128.54
-132.84
-126.74
-108.04
-78.60
-44.35
-12.41
11.13
23.93
27.57
25.99
23.01
20.69
19.07
17.33
15.13
12.96
11.98
12.91
15.38
18.06
19.40
18.28
14.89
10.51
6.85
5.36
6.46
9.35
12.34
13.70
12.40
8.74
4.11
0.36
-1.03
0.33
3.58
7.08
9.24
9.23
7.46
5.25
4.25
5.91
11.33
21.16
35.31
52.22
68.48
79.41
80.42
69.26
47.60
20.86
-4.04
-21.01
-27.81
-25.90
-18.79
-9.81
-0.81
7.68
15.48
21.97
26.19
27.53
26.52
24.73
24.01
25.43
29.07
33.78
38.10
40.77
41.03
38.79
34.24
27.93
20.39
12.01
2.89
-6.87
-17.09
-27.49
-37.10
-45.80
-53.37
-59.88
-65.56
-70.61
-74.97
-78.33
-80.62
-81.41
-81.22
-80.82
-81.18
-82.85
-85.59
-88.62
-91.38
-94.15
-97.87
-103.34
-109.40
-112.80
-109.02
-94.58
-69.20
-36.47
-2.25
28.17
51.85
68.33
77.68
78.60
68.54
46.04
13.81
-20.12
-44.69
-50.75
-35.62
-4.71
31.22
61.21
78.72
83.62
80.50
75.10
71.06
69.06
67.87
66.34
64.41
62.77
61.87
60.90
58.15
52.13
42.88
32.42
23.79
19.42
19.62
22.56
25.14
24.74
20.38
12.95
4.58
-2.47
-6.60
-7.24
-4.52
1.20
9.38
19.26
29.25
37.06
39.98
35.73
23.45
4.38
-18.11
-39.51
-54.96
-61.18
-57.72
-47.02
-33.04
-20.06
-11.66
-9.97
-15.69
-28.11
-45.97
-67.09
-89.04
-108.89
-123.38
-129.40
-124.85
-109.54
-85.26
-55.09
-21.07
15.80
54.81
93.94
128.13
149.36
149.12
122.34
67.15
-7.43
-84.10
-142.96
-168.98
-158.22
-119.69
-72.34
-37.88
-32.87
-62.57
-120.74
-193.13
-263.26
-318.00
-350.59
-360.79
-352.71
-331.95
-303.18
-269.95
-235.00
-200.94
-170.53
-146.06
-128.30
-115.78
-104.84
-90.70
-69.77
-41.14
-6.85
29.38
63.76
94.04
119.70
141.38
159.80
175.01
186.44
193.79
197.68
199.91
202.90
208.82
218.86
232.99
249.89
267.25
281.82
289.79
287.38
272.02
243.57
205.06
162.15
121.51
88.58
65.80
52.27
44.82
39.87
35.14
30.32
26.82
26.86
32.74
46.30
68.69
99.88
138.03
179.25
218.01
248.36
265.67
267.78
255.14
229.95
194.71
151.06
99.52
40.15
-25.81
-94.61
-159.58
-212.07
-243.54
-247.96
-223.75
-174.65
-109.18
-38.91
23.90
68.72
88.44
80.08
44.53
-13.98
-88.47
-169.68
-246.55
-307.38
-341.89
-343.85
-313.43
-258.29
-191.85
-129.59
-84.42
-63.07
-64.97
-83.68
-109.72
-133.81
-149.12
-152.00
-141.67
-119.43
-87.75
-49.77
-9.07
30.34
64.51
90.11
105.26
110.04
106.45
97.94
88.34
80.72
76.70
76.22
77.98
80.29
81.89
82.46
82.59
83.24
85.13
88.31
92.10
95.41
97.22
96.96
94.63
90.59
85.24
78.80
71.22
62.36
52.30
41.58
31.18
22.24
15.53
10.97
7.46
3.18
-3.50
-13.27
-25.34
-37.66
-47.77
-53.80
-55.16
-52.61
-47.71
-42.07
-36.73
-32.08
-28.11
-24.90
-22.86
-22.58
-24.46
-28.28
-32.92
-36.59
-37.37
-33.95
-26.09
-14.81
-1.94
10.55
21.17
29.34
35.22
39.29
41.96
43.26
42.97
40.91
37.31
32.93
28.91
26.39
26.11
28.06
31.43
34.84
36.78
36.13
32.64
27.09
21.12
16.68
15.26
17.31
21.99
27.52
31.91
33.81
33.03
30.45
27.48
25.16
23.59
21.78
18.26
11.95
2.96
-6.99
-15.11
-18.55
-15.71
-7.14
4.48
15.25
21.48
21.06
14.23
3.40
-7.48
-14.00
-12.23
0.26
23.48
54.48
87.54
115.52
132.11
134.12
122.66
102.46
79.44
57.57
36.79
13.29
-17.72
-58.21
-104.65
-147.93
-176.22
-179.54
-153.94
-103.40
-38.68
26.20
78.23
108.56
113.74
94.98
56.52
4.16
-55.32
-114.34
-164.82
-199.17
-211.89
-201.10
-168.83
-120.08
-61.00
2.83
66.64
125.81
174.90
207.64
218.06
202.55
161.44
99.72
26.36
-47.37
-109.82
-150.99
-164.43
-148.84
-108.82
-54.17
2.43
48.69
75.87
80.58
64.66
33.52
-5.87
-46.76
-83.54
-111.85
-128.60
-132.07
-122.16
-100.69
-71.14
-37.98
-5.63
22.44
44.04
58.21
64.72
63.88
56.60
44.71
31.00
18.84
11.18
9.71
14.32
23.32
34.22
44.54
52.43
56.85
57.44
54.37
48.26
40.10
31.16
22.82
16.21
11.92
9.90
9.58
10.12
10.78
11.12
11.00
10.41
9.29
7.44
4.57
0.55
-4.49
-10.03
-15.39
-19.85
-22.94
-24.48
-24.59
-23.60
-21.93
-20.12
-18.76
-18.46
-19.70
-22.64
-26.96
-31.86
-36.20
-38.83
-39.02
-36.63
-32.16
-26.55
-20.81
-15.71
-11.67
-8.71
-6.64
-5.07
-3.59
-1.75
0.76
4.11
8.25
12.98
18.02
23.04
27.78
31.95
35.34
37.78
39.21
39.70
39.37
38.39
36.92
35.12
33.17
31.26
29.56
28.15
27.04
26.18
25.59
25.33
25.46
25.90
26.23
25.77
23.75
19.62
13.46
6.06
-1.24
-6.97
-10.06
-10.20
-8.00
-4.64
-1.42
0.73
1.46
0.98
-0.21
-1.64
-3.01
-4.23
-5.33
-6.51
-8.08
-10.39
-13.66
-17.72
-21.90
-25.12
-26.19
-24.33
-19.59
-12.84
-5.57
0.67
4.83
6.67
6.72
5.97
5.38
5.56
6.62
8.28
10.00
11.09
10.76
8.24
3.02
-4.87
-14.54
-24.43
-32.70
-37.85
-39.22
-37.02
-32.10
-25.57
-18.55
-12.09
-7.13
-4.39
-4.04
-5.42
-7.07
-7.20
-4.51
1.08
8.30
14.88
18.48
17.62
12.19
3.44
-6.57
-15.79
-22.78
-27.02
-28.68
-28.26
-26.29
-23.14
-18.98
-13.84
-7.78
-0.94
6.34
13.65
20.57
26.76
31.99
36.05
38.92
40.50
40.60
39.09
36.18
32.49
29.04
26.85
26.59
28.92
33.80
40.43
47.55
53.97
59.04
62.87
66.04
69.17
73.74
80.52
89.03
97.74
104.88
109.38
111.32
111.64
111.44
113.42
119.43
129.61
142.52
156.29
169.76
182.65
194.85
205.47
215.63
226.29
237.68
249.08
259.11
266.13
268.55
265.12
240.19
186.99
110.20
25.01
-51.63
-109.68
-147.98
-170.51
-182.18
-186.95
-186.37
-181.49
-174.72
-170.08
-171.96
-183.39
-205.39
-232.63
-259.63
-280.07
-290.27
-290.36
-283.46
-273.54
-263.30
-253.30
-242.47
-230.07
-214.93
-197.29
-179.02
-162.96
-151.43
-144.92
-141.83
-139.25
-135.20
-128.44
-119.59
-110.74
-104.34
-102.00
-103.98
-109.43
-116.85
-124.55
-129.75
-128.92
-118.39
-96.27
-63.64
-24.83
13.79
46.66
71.35
89.68
105.66
122.96
141.54
157.07
163.75
157.68
139.83
115.78
94.31
82.54
82.53
90.94
101.30
107.94
108.53
104.39
98.76
93.88
89.54
83.61
73.54
58.28
39.00
18.61
0.72
-12.16
-19.38
-22.26
-23.39
-25.41
-29.73
-36.00
-42.25
-45.71
-44.16
-36.52
-23.45
-7.11
9.67
24.67
36.96
47.07
56.27
65.68
75.79
85.80
93.65
96.51
91.61
76.69
51.11
16.55
-22.51
-58.16
-80.66
-81.18
-54.87
-3.04
66.17
139.84
205.27
249.73
266.20
255.30
223.73
181.30
137.19
97.23
63.21
33.85
6.49
-20.69
-48.33
-76.81
-106.09
-135.69
-164.82
-192.58
-218.26
-241.99
-264.82
-289.49
-321.08
-363.67
-417.79
-479.02
-538.66
-586.62
-615.13
-621.38
-608.15
-583.24
-553.60
-521.94
-486.19
-441.53
-383.40
-309.77
-221.30
-112.91
11.15
139.74
258.68
356.39
427.30
471.31
491.34
491.67
477.00
450.88
417.69
382.29
348.96
320.29
296.59
276.43
257.77
239.01
218.56
196.54
174.50
154.37
137.62
124.44
113.89
104.65
95.65
85.69
74.70
63.54
53.30
45.00
38.90
34.50
31.06
27.87
24.27
20.21
16.18
12.72
10.45
9.49
9.46
9.80
9.95
9.44
8.20
7.55
6.98
6.62
6.46
6.13
5.20
3.25
0.19
-3.59
-7.25
-9.90
-10.45
-8.28
-3.49
3.34
10.91
17.90
23.38
27.34
30.83
36.28
46.28
61.46
79.75
95.39
101.21
91.55
65.28
26.28
-17.68
-57.99
-88.04
-103.22
-101.99
-84.75
-54.32
-16.57
19.43
43.82
49.47
34.46
3.83
-34.10
-70.66
-100.44
-122.37
-139.08
-154.51
-166.90
-175.76
-173.70
-157.73
-129.73
-95.60
-61.89
-32.84
-9.10
11.26
29.94
48.10
64.56
77.43
85.03
86.75
82.65
74.34
63.94
52.65
41.10
27.92
11.25
-10.47
-34.22
-57.79
-78.89
-95.91
-109.07
-119.74
-129.74
-138.77
-143.24
-137.51
-117.42
-82.52
-37.74
8.11
46.49
72.41
85.65
88.86
84.53
72.86
53.44
27.85
1.21
-18.81
-25.70
-17.67
1.21
23.29
41.23
51.43
54.78
54.55
53.43
52.22
49.92
45.63
39.92
34.61
31.78
32.89
38.20
46.44
55.00
59.93
56.61
41.36
13.66
-22.19
-58.14
-85.09
-97.12
-93.99
-81.09
-66.09
-54.77
-48.38
-44.00
-37.40
-25.81
-11.05
2.90
12.36
16.01
15.73
14.25
13.47
13.06
11.07
5.17
-5.37
-19.72
-35.06
-48.18
-57.00
-61.39
-63.37
-66.31
-73.52
-86.11
-101.95
-115.67
-120.62
-111.54
-87.08
-50.51
-8.40
31.51
62.95
81.84
86.24
76.35
54.04
23.25
-10.41
-41.11
-64.88
-80.67
-90.46
-97.61
-104.72
-112.41
-119.22
-122.72
-120.92
-113.24
-99.98
-81.56
-58.18
-29.88
2.65
34.86
61.89
79.36
84.74
78.56
64.51
48.47
36.97
34.50
42.10
57.38
75.30
90.39
98.80
99.60
94.81
88.70
85.09
85.39
88.15
89.86
87.22
79.30
68.11
57.52
52.32
54.42
61.60
68.79
70.78
64.98
52.45
36.95
22.89
15.25
16.29
25.13
38.49
52.74
65.65
76.82
87.34
99.23
117.35
145.71
185.49
233.73
283.92
327.89
357.90
368.94
345.78
284.81
196.22
100.20
15.59
-48.67
-93.30
-123.32
-143.08
-154.85
-157.39
-150.55
-137.05
-121.84
-109.53
-102.18
-99.18
-97.99
-96.08
-90.30
-79.52
-65.10
-50.06
-37.39
-28.39
-23.10
-20.34
-18.92
-17.14
-14.31
-11.20
-9.18
-9.43
-12.09
-17.04
-23.34
-30.02
-35.83
-39.88
-41.69
-41.18
-38.57
-34.30
-30.03
-27.38
-28.01
-33.10
-43.04
-57.26
-74.47
-93.31
-107.78
-117.49
-123.50
-127.37
-130.65
-134.51
-139.90
-147.15
-155.29
-161.27
-160.97
-149.47
-123.82
-85.37
-40.05
3.71
38.30
59.89
69.40
70.41
67.55
63.96
60.45
56.43
51.42
46.00
41.59
39.49
39.62
41.00
42.19
41.75
39.12
34.72
29.64
25.12
22.08
20.60
20.25
20.34
20.10
19.02
16.85
13.74
10.02
6.25
2.92
0.46
-0.86
-1.14
-0.92
-1.09
-2.33
-5.13
-9.34
-14.37
-19.42
-23.68
-26.18
-26.07
-22.89
-17.11
-10.71
-7.13
-10.35
-23.20
-45.17
-72.15
-97.59
-114.86
-119.76
-111.87
-94.10
-70.26
-44.86
-20.42
2.15
22.51
39.97
53.42
61.91
65.52
65.29
62.90
60.34
58.78
58.37
58.37
57.66
55.44
51.56
46.61
41.63
37.71
35.38
34.50
34.37
34.10
33.06
31.10
28.53
25.96
24.07
23.19
23.25
23.84
24.44
24.64
24.37
23.82
23.41
23.57
24.54
26.19
28.19
30.05
31.46
32.36
32.98
33.84
35.43
37.97
41.12
44.24
46.46
47.12
45.97
43.29
39.84
36.38
33.30
30.29
26.46
20.81
12.72
2.34
-9.47
-21.19
-31.63
-40.22
-47.38
-54.23
-61.95
-71.50
-82.63
-95.99
-111.25
-126.82
-139.46
-144.70
-138.38
-118.74
-87.99
-51.99
-18.41
6.67
20.81
25.56
24.70
22.12
19.90
18.04
15.71
12.42
8.92
6.52
6.16
7.68
9.90
11.25
10.49
7.43
2.87
-1.81
-5.30
-7.04
-7.35
-7.20
-7.74
-9.78
-13.42
-18.14
-23.03
-27.27
-30.52
-32.96
-35.16
-37.80
-41.31
-45.76
-50.83
-56.00
-60.72
-64.61
-67.55
-69.48
-70.40
-70.11
-68.35
-64.76
-59.23
-51.49
-41.63
-30.04
-17.31
-4.16
8.71
20.64
31.12
39.79
46.48
51.12
53.80
54.71
54.08
52.19
49.25
45.46
40.96
35.88
30.29
24.33
18.10
11.75
5.41
-0.72
-6.46
-11.67
-16.20
-19.95
-22.86
-25.00
-26.49
-27.50
-28.27
-28.98
-29.89
-31.17
-32.87
-35.00
-37.62
-40.75
-44.40
-48.56
-53.26
-58.54
-64.43
-70.71
-77.22
-83.87
-90.57
-97.27
-103.90
-110.39
-116.66
-122.62
-127.85
-132.04
-134.98
-136.54
-136.51
-134.58
-130.29
-122.82
-113.41
-102.33
-89.67
-75.56
-60.25
-43.76
-26.23
-7.83
11.30
31.19
52.22
74.72
98.73
123.93
150.27
177.34
204.43
230.82
256.11
280.71
305.54
331.44
358.61
387.08
415.31
440.42
459.07
468.60
468.09
458.57
442.52
423.11
404.73
390.36
380.68
373.97
366.62
354.48
334.52
305.72
260.83
199.05
124.30
43.82
-34.25
-103.44
-160.18
-203.19
-233.08
-251.63
-259.95
-260.13
-255.13
-248.24
-241.46
-237.07
-236.09
-238.91
-245.34
-253.92
-263.51
-273.44
-283.38
-292.92
-301.26
-304.43
-299.38
-284.59
-260.10
-228.10
-192.40
-157.40
-126.90
-103.09
-86.01
-74.52
-66.74
-60.68
-55.14
-50.08
-46.17
-44.56
-46.40
-52.66
-64.09
-79.43
-95.69
-107.57
-109.23
-96.84
-70.80
-36.05
-0.61
27.12
41.87
42.82
33.50
18.85
2.75
-13.06
-28.16
-42.55
-56.15
-67.75
-76.15
-79.69
-77.85
-71.11
-62.96
-55.52
-49.71
-46.16
-43.85
-41.48
-35.91
-24.65
-6.40
18.95
50.84
88.25
128.63
170.62
212.93
256.92
303.72
353.68
405.96
458.59
508.88
552.07
585.45
590.77
557.31
484.00
380.76
264.38
151.60
63.88
2.05
-38.06
-63.00
-78.02
-88.88
-103.05
-124.87
-156.76
-194.59
-231.43
-258.53
-271.66
-270.75
-259.56
-242.19
-220.75
-196.12
-168.82
-142.23
-119.85
-105.46
-100.31
-103.56
-113.31
-127.17
-143.45
-160.24
-175.60
-185.37
-185.20
-171.42
-142.72
-100.52
-47.73
12.89
78.12
142.86
202.54
251.67
283.46
291.05
270.79
225.56
165.04
102.71
50.40
14.91
-3.96
-11.65
-14.35
-15.56
-15.09
-10.80
-1.23
12.07
25.80
36.00
39.94
37.57
31.12
23.98
18.81
16.43
14.53
10.17
0.70
-15.07
-35.94
-58.81
-79.79
-95.76
-105.17
-109.86
-112.45
-115.62
-121.44
-131.19
-146.03
-167.39
-196.69
-224.16
-242.22
-242.91
-220.82
-176.12
-115.34
-49.76
8.63
51.65
77.00
86.37
84.96
77.79
68.28
58.83
51.84
49.50
53.65
63.59
73.97
77.80
68.80
44.83
10.30
-24.66
-48.87
-55.28
-43.78
-21.08
4.19
24.82
37.63
43.58
45.49
45.90
45.30
42.43
35.05
21.76
1.10
-27.77
-64.48
-106.06
-147.12
-180.53
-199.08
-200.78
-184.20
-152.40
-112.18
-71.69
-37.68
-13.51
1.66
12.22
22.71
38.59
62.00
90.99
120.72
146.06
163.71
173.29
176.81
176.74
175.13
171.98
166.29
157.76
147.45
137.62
130.41
126.77
126.04
127.20
129.20
131.43
133.23
133.13
128.14
114.75
92.45
60.95
24.08
-11.84
-40.96
-60.20
-69.96
-73.28
-73.72
-73.75
-74.39
-75.76
-77.62
-80.37
-84.75
-91.06
-98.50
-105.32
-109.70
-110.41
-107.71
-102.44
-95.98
-89.70
-84.48
-80.22
-76.11
-71.22
-61.72
-48.50
-33.31
-18.08
-4.24
7.41
16.87
24.90
32.38
40.03
47.92
56.36
65.33
74.56
83.37
91.15
97.55
102.04
104.24
103.36
99.14
91.31
79.61
63.33
42.52
18.18
-8.45
-35.15
-59.40
-78.32
-89.78
-92.93
-88.83
-79.17
-65.73
-51.03
-37.12
-25.77
-18.40
-17.14
-21.25
-32.88
-54.18
-80.14
-106.88
-131.90
-154.03
-170.80
-177.08
-166.55
-135.83
-86.65
-26.56
32.29
79.16
108.55
121.79
124.73
123.83
122.78
122.63
123.21
123.94
124.94
125.98
125.03
118.06
100.74
71.14
31.67
-10.97
-48.90
-75.72
-88.88
-89.64
-81.96
-70.59
-59.61
-51.88
-49.05
-52.17
-60.90
-72.82
-83.18
-85.77
-75.05
-48.31
-7.88
38.58
80.20
106.29
110.27
91.95
57.71
17.14
-20.01
-47.11
-61.93
-65.57
-61.19
-52.09
-41.10
-30.60
-22.86
-20.21
-23.83
-35.73
-55.43
-79.41
-101.59
-114.99
-114.01
-96.98
-67.26
-32.12
-0.15
22.44
33.73
35.85
32.86
28.07
22.77
16.22
7.57
-2.93
-13.41
-21.23
-24.09
-20.86
-12.13
0.87
15.34
27.55
33.96
32.71
24.91
14.42
6.01
2.62
3.47
4.40
0.82
-9.02
-22.22
-32.71
-35.08
-28.17
-15.99
-5.60
-3.08
-10.02
-22.81
-34.80
-39.68
-34.63
-21.23
-3.65
13.64
27.91
38.67
46.63
52.48
56.00
56.06
51.23
41.03
26.31
9.34
-6.86
-19.67
-27.58
-30.63
-30.23
-28.37
-26.83
-26.55
-27.25
-27.95
-27.66
-25.82
-22.62
-18.93
-15.83
-14.07
-13.72
-13.87
-13.19
-10.43
-4.63
4.82
18.23
35.71
57.14
79.56
100.25
116.48
126.23
128.92
125.60
118.26
108.97
98.93
88.22
76.62
63.96
50.73
38.13
27.63
20.37
16.71
16.21
17.81
20.56
23.49
25.83
26.95
26.36
23.61
18.40
10.70
0.99
-9.42
-18.73
-25.11
-27.28
-25.09
-19.68
-13.09
-7.61
-4.99
-5.82
-9.53
-14.63
-19.26
-21.80
-21.30
-17.70
-11.79
-4.95
1.19
5.24
6.27
4.06
-0.93
-7.60
-14.54
-20.22
-23.45
-23.64
-21.06
-16.74
-12.18
-8.86
-7.78
-9.13
-12.34
-16.27
-19.68
-21.63
-21.76
-20.42
-18.38
-16.49
-15.21
-14.33
-12.82
-9.30
-2.57
7.77
20.89
34.79
46.83
54.49
56.16
51.71
42.46
30.85
19.73
11.69
8.45
10.59
17.53
27.73
39.06
49.25
56.46
59.62
58.75
54.91
49.86
45.46
43.19
43.79
47.13
52.52
58.94
65.42
71.21
75.87
79.17
81.10
81.79
81.55
80.88
80.40
80.73
82.20
84.53
86.68
86.85
82.90
73.01
56.33
33.54
6.82
-20.71
-45.82
-66.18
-81.20
-92.16
-102.03
-114.72
-134.17
-163.14
-201.97
-247.61
-293.56
-330.92
-350.59
-346.11
-315.85
-263.98
-199.42
-133.29
-75.64
-32.92
-7.01
4.01
3.99
-3.27
-15.23
-30.72
-49.20
-69.80
-90.89
-110.14
-125.11
-133.96
-135.72
-130.15
-117.39
-97.88
-72.45
-42.68
-11.18
18.47
42.35
57.14
61.03
54.33
39.22
19.06
-2.65
-22.96
-39.78
-51.76
-57.86
-57.32
-49.86
-36.07
-17.59
3.07
22.95
39.41
50.53
55.55
54.83
49.75
42.35
34.94
29.47
27.16
28.30
32.30
38.05
44.31
50.13
54.97
58.80
61.83
64.40
66.84
69.29
71.75
74.05
75.89
76.93
76.84
75.27
71.97
66.80
59.82
51.34
41.88
32.17
23.05
15.27
9.38
5.58
3.61
2.73
1.97
0.53
-1.94
-4.98
-7.52
-8.22
-6.04
-0.84
6.44
13.87
19.19
20.50
16.99
9.11
-1.45
-12.33
-21.15
-26.06
-26.09
-21.25
-12.44
-1.33
9.97
19.20
24.56
25.13
21.26
14.44
6.73
-0.00
-4.76
-7.65
-9.57
-11.69
-14.92
-19.69
-26.03
-33.87
-43.17
-53.89
-65.85
-78.60
-91.51
-104.05
-115.93
-127.15
-137.75
-147.47
-155.62
-161.17
-162.97
-160.11
-152.03
-138.58
-119.73
-95.53
-66.13
-32.22
4.49
41.03
73.55
98.29
112.65
115.93
109.31
95.19
76.31
55.37
35.11
18.79
10.26
13.12
29.25
57.40
92.91
128.94
158.90
178.78
188.14
189.57
186.78
182.74
178.57
173.77
167.15
157.94
146.18
132.52
117.55
101.38
83.69
64.11
42.88
21.02
0.27
-17.42
-30.51
-38.37
-41.49
-41.23
-39.46
-37.95
-38.12
-40.77
-45.98
-52.82
-59.11
-61.70
-57.34
-44.20
-23.32
0.98
22.30
34.36
33.38
19.50
-3.47
-29.45
-51.96
-65.74
-67.77
-57.58
-37.35
-11.64
13.56
32.12
39.38
33.40
15.36
-10.87
-39.76
-65.32
-82.32
-87.30
-79.51
-61.27
-37.62
-14.99
0.64
5.48
-1.13
-16.76
-36.83
-56.04
-69.70
-74.59
-69.51
-55.24
-34.22
-9.84
14.32
35.45
52.00
63.89
72.15
78.35
83.88
89.64
95.86
102.32
108.57
114.16
118.69
121.84
123.30
122.84
120.32
115.84
109.71
102.50
94.93
87.62
80.83
74.15
66.58
57.04
45.08
31.54
18.44
8.21
2.36
0.44
-0.09
-3.03
-11.68
-27.37
-48.77
-72.36
-93.86
-109.79
-118.47
-120.30
-117.07
-110.95
-103.64
-95.96
-87.89
-79.06
-69.28
-58.79
-48.20
-38.23
-29.34
-21.60
-14.59
-7.63
0.07
9.14
19.86
32.17
45.74
60.17
75.02
89.73
103.51
115.28
123.85
128.41
128.83
125.59
119.32
110.26
98.10
82.37
63.07
41.25
18.92
-1.63
-18.76
-32.09
-42.54
-51.69
-60.99
-71.23
-82.38
-93.87
-105.03
-115.30
-124.31
-131.68
-136.98
-139.70
-139.42
-136.04
-129.98
-121.99
-112.98
-103.41
-93.20
-81.72
-68.27
-52.56
-35.01
-16.72
1.02
17.17
31.36
43.84
55.24
66.30
77.59
89.40
101.65
113.89
125.23
134.54
140.79
143.48
142.85
139.61
134.33
126.89
116.43
102.01
83.38
61.58
38.70
16.93
-2.39
-19.21
-34.44
-49.15
-63.76
-78.00
-91.18
-102.74
-112.46
-120.22
-125.74
-128.40
-127.59
-123.05
-115.11
-104.69
-92.90
-80.84
-69.36
-59.10
-50.55
-43.97
-39.25
-35.76
-32.41
-27.95
-21.44
-12.61
-1.99
9.41
20.59
31.02
40.81
50.43
60.36
70.67
81.05
90.97
100.00
108.04
115.16
121.50
127.19
132.25
136.67
140.05
141.27
138.21
128.16
108.74
79.25
41.49
-0.41
-41.23
-76.46
-103.77
-123.32
-136.96
-146.86
-154.29
-159.22
-160.71
-157.85
-150.46
-139.44
-126.42
-113.14
-100.81
-89.84
-79.84
-70.07
-59.91
-49.12
-37.89
-26.60
-15.48
-4.42
7.03
19.39
32.95
47.59
62.70
77.42
90.85
102.28
111.29
117.74
121.75
123.49
123.17
120.86
116.53
110.23
102.26
93.28
84.35
76.57
70.69
66.62
63.37
59.34
53.05
43.76
31.84
18.68
6.09
-4.42
-12.19
-17.55
-21.54
-25.42
-30.19
-36.29
-43.59
-51.58
-59.55
-66.78
-72.64
-76.65
-78.47
-77.89
-74.96
-69.90
-63.20
-55.53
-47.63
-40.15
-33.52
-27.95
-23.40
-19.78
-16.92
-14.69
-12.89
-11.25
-9.54
-7.59
-5.42
-3.24
-1.31
0.17
1.16
1.75
2.08
2.17
1.93
1.21
-0.04
-1.71
-3.53
-5.16
-6.42
-7.31
-8.00
-8.71
-9.53
-10.40
-11.12
-11.59
-11.86
-12.23
-13.12
-14.84
-17.42
-20.52
-23.62
-26.21
-27.92
-28.65
-28.41
-27.25
-25.26
-22.58
-19.50
-16.55
-14.35
-13.38
-13.86
-15.69
-18.56
-22.03
-25.74
-29.44
-33.07
-36.67
-40.44
-44.54
-49.00
-53.60
-57.80
-60.92
-62.43
-62.27
-60.97
-59.58
-59.13
-60.33
-63.18
-67.02
-70.66
-72.68
-71.85
-67.20
-58.34
-45.36
-28.93
-10.04
10.22
30.92
51.55
72.01
92.44
112.85
132.84
151.47
167.32
178.90
185.13
185.72
181.44
173.86
164.80
155.62
146.79
137.85
127.88
116.12
102.45
87.43
71.96
56.74
42.04
27.79
13.92
0.68
-11.36
-21.55
-29.56
-35.51
-39.86
-43.18
-45.93
-48.41
-50.89
-53.66
-57.02
-61.03
-65.42
-69.61
-72.87
-74.70
-75.01
-74.19
-72.82
-71.41
-70.05
-68.50
-66.29
-63.06
-58.77
-53.69
-48.20
-42.51
-36.46
-29.57
-21.38
-11.85
-1.53
8.45
16.83
22.77
26.23
28.01
29.45
31.98
36.67
44.09
54.23
66.52
79.88
92.73
103.17
109.43
110.32
105.66
96.33
83.98
70.54
57.71
46.67
38.02
31.89
27.93
25.53
23.80
21.83
18.95
14.87
9.82
4.43
-0.58
-4.57
-7.19
-8.48
-8.75
-8.40
-7.85
-7.37
-7.13
-7.25
-7.82
-8.90
-10.45
-12.37
-14.42
-16.36
-18.04
-19.42
-20.57
-21.53
-22.28
-22.71
-22.67
-22.14
-21.23
-20.18
-19.26
-18.66
-18.40
-18.34
-18.26
-17.94
-17.24
-16.17
-14.78
-13.15
-11.35
-9.36
-7.18
-4.84
-2.49
-0.35
1.33
2.39
2.81
2.79
2.62
2.63
3.10
4.17
5.79
7.79
9.92
11.96
13.76
15.28
16.60
17.85
19.12
20.41
21.68
22.81
23.75
24.54
25.26
26.01
26.84
27.72
28.65
29.65
30.79
32.04
33.21
33.90
33.69
32.40
30.18
27.45
24.50
21.13
16.53
9.69
-0.04
-12.31
-25.80
-38.62
-49.11
-56.47
-60.94
-63.42
-64.93
-66.14
-67.17
-67.80
-67.70
-66.62
-64.48
-61.32
-57.24
-52.37
-46.85
-40.85
-34.50
-28.01
-21.66
-15.79
-10.75
-6.76
-3.80
-1.60
0.23
1.97
3.69
5.19
6.16
6.41
5.98
5.13
4.27
3.66
3.28
2.86
2.07
0.66
-1.31
-3.54
-5.56
-7.01
-7.70
-7.75
-7.43
-7.01
-6.69
-6.53
-6.46
-6.33
-5.95
-5.19
-3.91
-2.06
0.34
3.22
6.42
9.64
12.53
14.65
15.69
15.53
14.36
12.61
10.81
9.42
8.64
8.42
8.52
8.62
8.46
7.89
6.90
5.57
4.12
2.85
2.06
1.98
2.64
3.78
4.91
5.42
4.76
2.73
-0.42
-4.04
-7.26
-9.29
-9.73
-8.65
-6.57
-4.19
-2.24
-1.29
-1.65
-3.37
-6.17
-9.45
-12.37
-14.06
-13.92
-11.84
-8.30
-4.16
-0.35
2.53
4.34
5.34
5.93
6.39
6.74
6.84
6.53
5.82
4.91
4.06
3.49
3.25
3.29
3.51
3.91
4.53
5.33
6.14
6.58
6.27
5.04
3.06
0.87
-0.91
-1.73
-1.45
-0.27
1.37
2.97
4.26
5.11
5.53
5.50
4.91
3.60
1.43
-1.61
-5.27
-9.12
-12.71
-15.64
-17.74
-19.02
-19.63
-19.72
-19.43
-18.86
-18.02
-16.89
-15.38
-13.38
-10.93
-8.30
-6.04
-4.84
-5.24
-7.32
-10.60
-14.16
-17.04
-18.67
-19.04
-18.69
-18.32
-18.46
-19.15
-19.97
-20.17
-19.14
-16.71
-13.30
-9.85
-7.44
-6.88
-8.35
-11.30
-14.59
-16.93
-17.24
-14.93
-10.03
-3.08
5.01
13.18
20.51
26.57
31.57
36.35
42.06
49.54
58.85
69.18
79.13
87.40
93.39
97.41
100.33
102.91
105.12
105.96
103.92
97.79
87.32
73.58
58.48
44.04
31.56
21.30
12.57
4.45
-3.76
-12.17
-20.52
-28.49
-36.07
-43.54
-51.27
-59.22
-66.79
-72.81
-75.86
-74.83
-69.26
-59.64
-47.23
-33.69
-20.57
-8.94
0.77
8.73
15.38
21.12
26.12
30.25
33.16
34.50
34.03
31.84
28.40
24.55
21.43
20.07
21.03
24.02
27.89
30.88
31.20
27.54
19.33
6.70
-9.74
-29.10
-50.08
-70.87
-89.06
-102.05
-107.65
-104.82
-93.93
-76.65
-55.51
-33.17
-12.15
5.61
18.88
27.47
32.37
35.68
39.97
47.48
59.25
74.59
91.30
106.36
116.95
121.41
119.94
114.54
108.22
103.61
101.31
99.07
92.05
74.49
42.24
-5.08
-63.30
-124.68
-180.26
-222.39
-246.59
-252.07
-241.20
-218.33
-188.62
-157.02
-127.42
-102.04
-81.19
-63.38
-46.15
-27.15
-5.07
19.82
45.88
71.00
93.53
112.79
129.09
143.07
155.04
164.66
171.03
173.02
169.55
159.60
142.12
116.34
82.22
41.21
-3.41
-46.88
-84.17
-111.40
-127.04
-132.13
-129.56
-122.96
-115.71
-110.35
-108.50
-110.77
-116.66
-124.40
-131.22
-133.99
-130.33
-119.37
-101.95
-80.09
-56.00
-31.26
-6.57
17.86
41.85
64.79
85.73
103.65
117.70
127.22
131.61
130.34
123.07
109.95
91.96
70.88
49.15
29.31
13.49
2.92
-2.42
-3.65
-2.74
-1.81
-2.43
-5.22
-9.74
-14.94
-19.66
-23.06
-24.76
-24.78
-23.35
-20.81
-17.58
-14.14
-11.06
-8.90
-8.07
-8.74
-10.77
-13.73
-17.00
-19.88
-21.72
-22.05
-20.60
-17.42
-12.84
-7.50
-2.19
2.32
5.40
6.69
6.10
3.81
0.31
-3.76
-7.58
-10.36
-11.49
-10.72
-8.30
-4.87
-1.28
1.74
3.84
5.13
6.04
7.01
8.27
9.65
10.66
10.72
9.41
6.66
2.74
-1.73
-6.08
-9.68
-12.08
-13.04
-12.57
-10.90
-8.45
-5.80
-3.45
-1.82
-1.06
-1.05
-1.48
-1.94
-2.12
-1.84
-1.10
-0.00
1.31
2.74
4.25
5.83
7.44
9.02
10.44
11.60
12.51
13.30
14.16
15.23
16.59
18.19
19.91
21.61
23.03
23.87
23.78
22.39
19.61
15.61
10.86
5.97
1.47
-2.36
-5.44
-7.81
-9.51
-10.51
-10.76
-10.30
-9.26
-7.81
-6.04
-3.89
-1.24
1.97
5.64
9.46
13.01
15.93
17.94
18.90
18.74
17.42
14.98
11.53
7.36
2.82
-1.80
-6.41
-11.11
-16.06
-21.25
-26.38
-30.86
-34.12
-35.85
-36.19
-35.64
-34.76
-33.80
-32.63
-30.84
-28.11
-24.58
-20.83
-17.63
-15.54
-14.52
-13.96
-12.98
-10.92
-7.74
-4.01
-0.64
1.53
2.06
1.04
-1.14
-3.98
-7.06
-10.08
-12.82
-15.07
-16.66
-17.64
-18.25
-18.72
-18.96
-18.31
-15.49
-9.14
1.58
16.34
33.69
51.38
67.18
79.51
87.70
91.75
92.04
88.96
82.91
74.49
64.57
54.25
44.55
36.19
29.38
23.94
19.49
15.75
12.60
10.05
8.10
6.58
5.17
3.49
1.25
-1.58
-4.78
-7.97
-10.77
-12.89
-14.18
-14.67
-14.43
-13.65
-12.56
-11.44
-10.56
-10.08
-9.98
-10.12
-10.27
-10.26
-10.03
-9.62
-9.17
-8.80
-8.68
-8.92
-9.61
-10.69
-11.98
-13.19
-14.00
-14.21
-13.83
-12.99
-11.92
-10.74
-9.50
-8.17
-6.74
-5.33
-4.12
-3.24
-2.68
-2.31
-1.82
-0.95
0.42
2.25
4.27
6.14
7.47
7.91
7.20
5.27
2.22
-1.55
-5.40
-8.62
-10.55
-10.88
-9.74
-7.63
-5.23
-3.22
-1.99
-1.67
-2.19
-3.33
-4.87
-6.56
-8.06
-9.00
-9.09
-8.29
-6.79
-5.07
-3.65
-2.90
-2.91
-3.50
-4.36
-5.19
-5.72
-5.78
-5.28
-4.23
-2.75
-1.15
0.21
1.02
1.12
0.66
-0.02
-0.49
-0.45
0.18
1.21
2.30
3.18
3.69
3.88
3.90
3.90
3.98
4.15
4.39
4.71
5.10
5.52
5.86
5.95
5.66
4.96
3.99
2.98
2.17
1.71
1.60
1.78
2.10
2.41
2.57
2.46
2.01
1.22
0.18
-1.06
-2.43
-3.98
-5.76
-7.70
-9.66
-11.31
-12.40
-12.77
-12.54
-12.01
-11.66
-11.86
-12.80
-14.37
-16.16
-17.63
-18.29
-17.89
-16.55
-14.60
-12.47
-10.36
-8.26
-5.97
-3.37
-0.62
1.93
3.83
4.84
5.05
4.83
4.66
4.88
5.53
6.38
7.13
7.59
7.74
7.77
7.81
7.89
7.83
7.39
6.38
4.86
3.08
1.45
0.26
-0.40
-0.63
-0.67
-0.66
-0.66
-0.68
-0.83
-1.31
-2.35
-3.98
-5.96
-7.77
-8.80
-8.66
-7.36
-5.30
-3.11
-1.32
-0.12
0.60
1.18
1.88
2.77
3.66
4.26
4.30
3.79
2.93
2.12
1.72
1.98
2.89
4.22
5.63
6.69
7.07
6.58
5.22
3.26
1.10
-0.81
-2.16
-2.88
-3.15
-3.30
-3.62
-4.24
-5.09
-5.97
-6.70
-7.15
-7.30
-7.16
-6.75
-6.06
-5.18
-4.36
-3.98
-4.43
-5.87
-8.11
-10.62
-12.70
-13.81
-13.75
-12.67
-10.88
-8.64
-6.03
-3.10
0.00
3.01
5.50
7.17
7.99
8.18
8.11
8.03
7.99
7.85
7.40
6.56
5.44
4.26
3.32
2.77
2.61
2.72
2.93
3.11
3.26
3.48
3.88
4.50
5.23
5.85
6.13
5.90
5.20
4.21
3.18
2.28
1.54
0.94
0.38
-0.12
-0.51
-0.69
-0.63
-0.39
-0.14
-0.09
-0.40
-1.18
-2.44
-4.04
-5.77
-7.34
-8.46
-8.96
-8.79
-8.06
-6.98
-5.73
-4.38
-2.93
-1.31
0.49
2.35
4.03
5.27
5.88
5.84
5.31
4.58
3.97
3.76
4.06
4.83
5.89
6.91
7.59
7.70
7.12
5.96
4.42
2.78
1.36
0.40
0.12
0.53
1.49
2.65
3.57
3.86
3.35
2.17
0.67
-0.72
-1.76
-2.44
-2.98
-3.61
-4.42
-5.29
-5.99
-6.40
-6.53
-6.59
-6.82
-7.35
-8.09
-8.80
-9.23
-9.25
-8.93
-8.40
-7.79
-7.12
-6.30
-5.29
-4.15
-3.11
-2.49
-2.51
-3.24
-4.44
-5.72
-6.57
-6.60
-5.65
-3.85
-1.56
0.69
2.37
3.13
2.84
1.74
0.29
-0.95
-1.58
-1.46
-0.79
-0.01
0.41
0.21
-0.60
-1.71
-2.67
-3.13
-2.89
-1.99
-0.71
0.60
1.55
1.85
1.29
-0.12
-2.13
-4.28
-6.00
-6.79
-6.40
-4.96
-2.90
-0.79
0.88
1.86
2.15
1.91
1.33
0.49
-0.59
-1.81
-2.99
-3.83
-4.06
-3.60
-2.62
-1.45
-0.45
0.15
0.37
0.43
0.61
1.12
2.03
3.28
4.66
5.94
6.88
7.25
6.97
6.06
4.72
3.21
1.91
1.09
0.92
1.34
2.08
2.72
2.87
2.28
0.95
-0.87
-2.85
-4.64
-6.09
-7.14
-7.82
-8.17
-8.22
-8.01
-7.67
-7.40
-7.34
-7.50
-7.59
-7.26
-6.17
-4.29
-1.87
0.56
2.43
3.39
3.29
2.28
0.68
-1.11
-2.66
-3.54
-3.40
-2.08
0.27
3.15
5.86
7.71
8.30
7.68
6.28
4.79
3.82
3.75
4.62
6.14
7.87
9.37
10.32
10.56
10.09
9.01
7.50
5.73
3.88
2.07
0.35
-1.25
-2.74
-4.15
-5.53
-6.87
-8.12
-9.24
-10.16
-10.83
-11.23
-11.31
-11.03
-10.33
-9.25
-7.89
-6.51
-5.35
-4.60
-4.30
-4.28
-4.30
-4.10
-3.52
-2.53
-1.23
0.20
1.59
2.80
3.75
4.44
4.91
5.20
5.35
5.37
5.24
4.99
4.66
4.36
4.14
3.94
3.63
2.98
1.84
0.27
-1.44
-2.87
-3.61
-3.48
-2.57
-1.24
0.04
0.90
1.13
0.76
-0.06
-1.16
-2.43
-3.80
-5.22
-6.58
-7.71
-8.37
-8.39
-7.74
-6.58
-5.20
-3.90
-2.81
-1.90
-0.99
0.15
1.64
3.45
5.45
7.40
9.12
10.50
11.50
12.19
12.63
12.87
12.90
12.64
11.98
10.77
8.99
6.76
4.35
2.14
0.46
-0.53
-0.86
-0.78
-0.63
-0.74
-1.23
-2.03
-2.88
-3.49
-3.72
-3.60
-3.42
-3.51
-4.15
-5.42
-7.18
-9.11
-10.79
-11.87
-12.13
-11.56
-10.36
-8.83
-7.34
-6.17
-5.40
-4.88
-4.36
-3.51
-2.20
-0.45
1.55
3.53
5.15
6.22
6.62
6.40
5.74
4.90
4.14
3.65
3.48
3.52
3.60
3.51
3.12
2.43
1.50
0.47
-0.49
-1.19
-1.46
-1.17
-0.41
0.54
1.22
1.22
0.39
-1.03
-2.56
-3.66
-4.01
-3.68
-3.06
-2.60
-2.62
-3.22
-4.29
-5.69
-7.33
-9.16
-11.08
-12.87
-14.13
-14.46
-13.61
-11.66
-9.01
-6.33
-4.27
-3.26
-3.34
-4.19
-5.30
-6.19
-6.57
-6.45
-6.00
-5.43
-4.84
-4.17
-3.30
-2.17
-0.83
0.56
1.79
2.82
3.70
4.62
5.76
7.20
8.89
10.79
13.05
16.03
20.22
25.88
32.80
40.07
46.35
50.36
51.40
49.67
46.12
41.93
38.02
34.74
32.09
29.96
28.36
27.16
25.81
23.06
17.22
7.05
-7.57
-25.16
-42.93
-57.70
-66.95
-69.58
-66.09
-58.12
-47.77
-36.90
-26.72
-17.65
-9.60
-2.21
4.81
11.61
18.23
24.72
31.17
37.59
43.67
48.76
51.97
52.63
50.64
46.58
41.50
36.43
31.97
28.20
24.75
21.21
17.35
13.11
8.43
3.14
-3.10
-10.60
-19.34
-28.93
-38.58
-47.47
-54.94
-60.62
-64.36
-66.10
-65.86
-63.91
-61.01
-58.35
-57.27
-58.52
-61.82
-65.73
-68.13
-67.18
-62.03
-53.18
-42.09
-30.50
-19.74
-10.33
-2.20
5.04
11.73
17.95
23.60
28.50
32.42
35.17
36.60
36.79
36.08
35.13
34.64
35.07
36.27
37.53
37.95
36.99
34.88
32.59
31.36
32.11
35.04
39.45
44.09
47.55
48.74
47.22
43.49
39.15
36.61
38.31
45.77
58.70
74.63
89.40
98.61
99.15
90.40
74.67
56.39
40.41
30.14
26.23
26.06
24.40
15.30
-5.47
-37.88
-76.58
-112.00
-133.06
-130.78
-101.39
-47.77
21.20
93.22
155.83
199.56
219.20
214.09
187.39
144.77
92.95
38.66
-12.15
-55.88
-89.17
-109.87
-117.61
-114.05
-102.42
-86.59
-69.63
-52.97
-36.50
-19.12
-0.07
20.39
41.13
60.65
77.72
91.80
103.17
112.58
121.32
129.47
135.89
139.00
137.36
130.24
117.80
101.22
82.34
63.28
45.77
30.66
18.37
9.03
2.46
-1.94
-5.29
-9.23
-15.95
-24.80
-36.17
-50.18
-66.47
-84.19
-102.45
-120.65
-138.50
-156.06
-173.50
-191.25
-209.56
-228.61
-248.69
-270.20
-292.64
-313.56
-328.12
-330.28
-315.60
-283.31
-237.31
-185.19
-135.75
-96.16
-70.70
-61.12
-67.94
-91.22
-129.59
-178.66
-230.19
-273.13
-296.86
-294.81
-266.66
-217.83
-156.96
-92.47
-30.08
27.25
78.19
121.81
156.90
182.69
199.72
210.28
217.37
223.25
227.96
228.78
221.27
200.64
164.05
111.85
48.18
-19.39
-81.33
-128.69
-156.05
-163.64
-157.43
-146.24
-137.56
-133.82
-131.55
-124.03
-105.47
-74.80
-36.38
2.44
35.55
61.14
81.59
100.95
121.46
141.72
157.27
163.75
159.55
147.01
131.09
116.33
104.61
94.35
81.99
64.11
38.88
6.12
-33.22
-77.52
-123.97
-167.86
-202.84
-222.29
-221.81
-201.20
-164.55
-118.43
-69.13
-20.77
24.77
66.51
102.84
131.30
149.46
156.39
153.51
144.02
131.57
118.78
106.75
95.31
84.10
73.14
63.09
54.97
49.70
47.66
48.47
51.27
55.06
59.10
62.90
65.94
67.36
65.93
60.62
51.04
38.07
23.54
9.65
-1.79
-9.94
-14.90
-17.22
-17.25
-14.89
-9.68
-1.57
8.68
19.48
28.66
34.36
35.40
31.77
24.44
14.91
4.60
-5.62
-15.35
-24.50
-32.76
-39.50
-44.02
-46.08
-46.13
-45.34
-45.27
-47.43
-52.79
-61.13
-70.96
-79.85
-84.91
-83.47
-73.54
-54.00
-24.82
12.97
57.20
104.54
150.87
191.84
224.44
248.40
266.59
283.61
303.56
327.94
354.94
380.03
397.86
404.38
398.07
380.00
352.49
318.07
279.25
238.68
198.68
161.09
127.30
98.37
75.00
56.95
42.97
31.18
19.38
4.54
-17.10
-49.31
-94.89
-154.22
-224.72
-300.39
-373.87
-433.38
-468.02
-473.66
-455.38
-426.64
-397.82
-372.88
-349.97
-324.50
-291.96
-251.01
-204.01
-155.19
-108.48
-65.58
-26.58
9.09
41.95
72.65
102.29
132.22
163.56
196.28
228.43
255.41
271.31
271.62
250.78
209.76
155.36
97.63
45.69
4.69
-25.00
-45.49
-58.94
-66.48
-68.32
-65.60
-60.77
-56.78
-55.72
-57.96
-62.18
-66.10
-67.88
-66.46
-62.57
-58.26
-56.00
-57.43
-62.56
-69.71
-76.22
-79.72
-78.64
-73.27
-65.48
-57.91
-52.76
-50.86
-51.36
-52.32
-51.94
-48.98
-43.66
-37.32
-31.68
-28.21
-27.83
-30.82
-36.68
-43.78
-48.87
-47.89
-37.17
-15.77
13.60
44.88
70.85
86.03
88.82
81.70
69.28
55.87
43.63
32.54
21.75
11.19
2.25
-2.86
-2.51
2.96
11.29
19.25
23.81
23.71
19.94
15.01
11.88
12.90
18.76
28.34
39.05
47.48
50.34
45.29
31.64
11.00
-12.59
-33.41
-45.54
-44.92
-31.01
-7.15
20.41
44.38
59.06
62.05
54.46
39.68
21.75
3.95
-12.46
-25.94
-35.35
-39.78
-38.92
-33.35
-24.78
-15.63
-8.46
-4.90
-5.06
-7.83
-11.34
-13.79
-14.03
-12.01
-8.58
-5.28
-3.59
-4.36
-7.46
-11.71
-15.47
-17.26
-16.49
-13.64
-10.09
-7.29
-6.04
-6.48
-8.05
-10.04
-12.04
-13.94
-15.74
-17.22
-17.78
-16.59
-13.09
-7.37
-0.52
5.60
8.80
7.37
0.88
-9.42
-20.73
-29.72
-33.68
-31.78
-25.49
-18.13
-13.59
-14.57
-21.46
-32.19
-43.17
-50.92
-53.57
-51.54
-47.13
-43.46
-42.99
-46.69
-53.94
-62.95
-71.60
-78.39
-82.88
-85.75
-88.61
-93.19
-100.50
-110.07
-119.45
-124.46
-120.25
-102.98
-71.48
-28.27
20.88
68.50
107.75
134.41
147.79
150.26
145.78
138.07
129.51
120.91
112.05
102.57
92.48
82.19
72.24
63.00
54.36
46.00
37.63
29.36
21.79
16.03
13.09
13.42
16.50
20.93
24.97
27.33
27.70
26.91
26.00
25.35
24.22
20.93
13.96
2.99
-10.58
-23.93
-33.84
-37.81
-34.98
-26.09
-13.11
1.46
15.19
26.10
32.91
35.29
33.94
30.39
26.52
23.82
23.10
24.20
26.26
28.13
28.73
27.55
24.66
20.64
16.12
11.65
7.57
3.87
0.45
-2.96
-6.62
-10.68
-14.98
-19.10
-22.42
-24.35
-24.66
-23.56
-21.43
-18.64
-15.06
-10.35
-4.31
2.55
8.96
13.42
15.04
14.08
11.72
9.30
7.50
6.11
4.40
1.98
-0.78
-2.89
-3.52
-2.76
-1.50
-0.98
-1.79
-3.44
-4.55
-3.76
-0.54
4.37
9.32
12.60
13.09
10.63
5.87
-0.19
-6.67
-13.08
-19.17
-24.68
-29.14
-31.88
-32.37
-30.51
-26.80
-22.06
-17.14
-12.41
-7.77
-2.99
1.85
6.12
8.94
9.76
8.88
7.42
6.70
7.48
9.58
12.03
13.77
14.12
13.06
11.13
9.04
7.52
6.99
7.55
8.79
9.94
10.06
8.42
4.96
0.43
-3.78
-6.28
-6.30
-4.14
-1.05
1.35
1.62
-0.85
-5.79
-12.05
-18.08
-22.42
-24.30
-23.89
-22.08
-20.08
-18.77
-18.41
-18.62
-18.78
-18.35
-17.21
-15.56
-13.66
-11.87
-10.41
-9.35
-8.74
-8.60
-8.93
-9.83
-11.43
-13.98
-17.70
-22.36
-27.02
-30.14
-30.12
-25.96
-17.83
-7.07
4.40
14.70
22.50
27.01
27.80
24.88
18.89
11.31
4.30
0.03
-0.23
3.33
8.99
14.35
17.54
17.88
15.79
12.23
7.94
3.18
-1.92
-6.97
-11.09
-13.21
-12.49
-8.98
-3.58
2.43
7.88
12.09
15.03
16.96
18.13
18.62
18.36
17.28
15.48
13.24
10.98
9.16
8.09
7.94
8.69
10.08
11.83
13.57
14.93
15.54
15.00
13.16
10.11
6.47
3.16
1.23
1.31
3.20
5.95
8.16
8.71
7.31
4.76
2.36
1.30
1.91
3.41
4.54
3.98
1.61
-1.73
-4.31
-4.46
-1.41
4.43
11.45
17.56
20.75
20.04
15.51
8.67
1.70
-3.27
-4.73
-2.62
2.07
7.84
13.17
16.89
18.28
16.71
12.01
4.85
-3.18
-9.71
-12.69
-11.48
-7.07
-1.79
2.31
4.08
3.94
2.71
0.86
-1.99
-6.54
-12.68
-18.97
-23.03
-22.98
-18.54
-11.62
-4.89
-0.73
-0.04
-1.97
-4.89
-7.30
-8.40
-8.28
-7.54
-6.57
-5.70
-5.11
-4.99
-5.62
-7.00
-8.83
-10.67
-11.87
-12.07
-11.14
-9.25
-6.78
-4.24
-2.27
-1.57
-2.60
-5.57
-10.03
-15.19
-19.81
-22.77
-23.39
-21.80
-18.85
-16.01
-14.81
-16.22
-19.87
-24.14
-26.61
-25.17
-19.15
-9.61
1.19
10.99
18.45
23.50
26.70
28.44
28.27
25.48
19.73
11.71
3.10
-4.43
-10.06
-14.18
-17.82
-21.90
-26.48
-31.01
-34.66
-36.93
-37.73
-37.41
-36.24
-34.13
-30.75
-25.65
-18.55
-9.64
0.26
9.88
17.85
23.21
25.71
25.97
25.07
24.12
23.93
24.75
26.44
28.75
31.39
33.81
35.38
35.54
33.99
30.99
27.12
23.04
19.26
16.14
13.95
13.10
13.81
15.81
18.20
19.79
19.73
17.91
14.87
11.54
8.31
5.23
2.25
-0.09
-0.92
0.47
3.68
6.89
7.74
4.96
-0.67
-6.44
-9.27
-7.72
-3.21
0.89
1.15
-3.67
-12.07
-20.87
-27.18
-29.62
-28.64
-25.33
-20.48
-14.47
-7.85
-1.99
1.08
-0.59
-7.43
-17.43
-27.10
-32.68
-32.05
-25.36
-14.90
-3.52
6.51
14.09
19.09
22.08
23.69
24.51
24.75
24.44
23.28
20.93
16.98
11.07
3.21
-5.92
-14.90
-21.68
-24.37
-22.38
-16.85
-10.57
-6.61
-6.69
-10.12
-14.08
-15.30
-11.98
-5.08
2.50
7.57
8.76
7.23
5.53
5.92
9.28
14.70
20.59
25.59
29.02
30.79
30.87
28.97
24.78
18.32
10.25
1.89
-4.83
-8.21
-7.31
-2.39
4.57
10.62
12.79
9.35
0.78
-10.39
-20.56
-26.54
-26.72
-21.33
-11.86
-0.55
10.19
18.42
22.65
22.21
17.69
10.69
3.33
-2.38
-5.49
-6.20
-5.63
-5.20
-5.83
-7.60
-9.87
-11.77
-12.67
-12.51
-11.67
-10.64
-9.80
-9.11
-8.20
-6.68
-4.33
-1.37
1.46
3.07
2.53
-0.65
-6.10
-12.68
-18.88
-23.29
-25.05
-23.99
-20.55
-15.40
-9.37
-3.26
2.19
6.32
8.81
9.81
9.88
9.64
9.41
9.08
8.32
7.10
5.78
4.99
5.18
6.24
7.40
7.47
5.53
1.43
-4.07
-9.71
-14.34
-17.65
-20.23
-23.50
-28.68
-35.94
-43.83
-49.98
-52.64
-51.66
-48.79
-46.50
-46.30
-47.62
-47.95
-44.55
-36.33
-24.74
-12.72
-2.84
4.13
9.01
12.52
14.46
13.71
10.04
5.51
4.81
13.76
36.76
74.37
119.58
160.59
185.12
186.81
168.00
136.92
102.29
69.91
41.94
17.87
-3.14
-21.00
-34.67
-43.06
-46.00
-44.59
-40.72
-36.53
-33.97
-34.09
-36.78
-41.05
-45.58
-49.36
-51.89
-53.15
-53.64
-54.12
-55.25
-56.88
-58.19
-57.63
-53.50
-44.44
-29.61
-8.71
18.10
49.45
82.97
114.11
136.27
142.46
128.27
94.50
47.76
-1.48
-42.86
-69.73
-81.24
-81.35
-76.04
-70.32
-66.48
-63.85
-59.82
-51.08
-34.61
-9.39
23.62
61.18
98.27
129.87
151.96
162.48
160.25
148.01
129.24
107.56
86.54
69.05
56.27
46.54
35.15
16.77
-12.49
-52.61
-98.62
-141.96
-173.88
-188.85
-184.88
-166.60
-140.76
-112.93
-86.52
-62.86
-42.38
-25.63
-13.36
-5.94
-2.99
-2.84
-3.29
-2.56
-0.04
3.74
7.53
10.06
10.68
9.31
6.92
4.89
4.23
5.22
7.39
9.81
11.56
12.08
11.31
9.82
8.38
7.70
7.98
9.03
10.39
11.55
12.21
12.27
11.99
11.71
11.76
12.23
13.05
14.07
15.12
16.08
16.88
17.57
18.23
18.98
19.82
20.83
22.14
23.95
26.47
29.77
33.86
38.60
43.69
48.56
52.59
55.19
55.83
54.01
49.46
42.07
31.93
19.47
5.29
-9.88
-25.08
-39.24
-51.53
-61.28
-68.21
-72.94
-75.23
-75.53
-74.18
-71.35
-67.05
-61.35
-54.60
-47.35
-40.32
-34.16
-29.37
-25.83
-22.78
-19.26
-14.41
-8.20
-1.28
4.73
8.05
7.10
1.34
-8.61
-21.31
-34.48
-47.27
-59.27
-71.00
-82.92
-95.57
-109.16
-123.79
-139.28
-154.02
-166.16
-170.51
-162.47
-139.59
-103.19
-58.36
-12.42
27.83
58.75
80.11
94.30
103.98
110.63
114.33
114.63
111.76
107.05
102.30
98.73
96.67
95.39
94.01
92.14
90.39
90.22
93.46
101.44
114.31
130.57
146.87
158.62
161.42
152.56
132.16
103.38
71.11
40.24
13.87
-7.20
-23.94
-37.76
-49.40
-58.50
-64.08
-65.45
-62.71
-56.94
-49.59
-41.82
-33.65
-25.01
-15.70
-5.73
4.42
14.04
22.32
28.68
32.99
35.55
36.76
36.98
36.34
34.54
31.11
25.67
18.12
8.78
-1.74
-12.61
-23.02
-32.26
-39.99
-46.12
-50.74
-54.00
-56.06
-57.08
-57.26
-56.77
-55.80
-54.60
-53.33
-52.10
-50.94
-49.73
-48.33
-46.61
-44.46
-41.88
-38.95
-35.78
-32.49
-29.21
-25.97
-22.80
-19.72
-16.75
-13.97
-11.45
-9.24
-7.28
-5.52
-3.82
-2.02
-0.02
2.25
4.77
7.52
10.44
13.45
16.43
19.28
21.85
24.05
25.84
27.19
28.13
28.75
29.10
29.26
29.28
29.17
28.91
28.47
27.83
26.97
25.90
24.62
23.17
21.65
20.12
18.68
17.42
16.38
15.60
14.99
14.39
13.59
12.36
10.54
8.05
4.94
1.27
-2.80
-7.12
-11.51
-15.81
-19.81
-23.31
-26.16
-28.20
-29.37
-29.68
-29.24
-28.23
-26.79
-25.05
-23.09
-21.00
-18.87
-16.84
-15.00
-13.48
-12.36
-11.71
-11.53
-11.79
-12.51
-13.69
-15.37
-17.49
-19.91
-22.48
-25.06
-27.45
-29.41
-30.81
-31.55
-31.61
-30.96
-29.67
-27.96
-26.34
-24.98
-23.64
-21.98
-19.84
-17.39
-15.15
-13.79
-13.91
-16.21
-20.38
-25.17
-29.05
-30.83
-29.90
-26.14
-19.75
-11.00
-0.72
11.24
25.61
42.79
62.45
83.70
105.74
128.14
150.61
167.49
172.76
162.78
138.80
106.35
72.49
42.90
20.23
3.65
-11.94
-31.97
-59.42
-94.27
-134.09
-174.90
-212.11
-241.26
-250.98
-237.09
-200.44
-146.30
-82.88
-18.97
38.05
83.38
115.03
135.53
145.18
144.98
136.94
123.59
107.33
90.13
73.35
57.81
43.84
30.15
16.45
2.98
-8.54
-16.19
-18.75
-15.94
-8.44
2.31
13.64
23.57
31.08
36.11
39.08
40.56
41.03
40.88
40.26
38.68
35.92
31.95
27.03
21.38
15.19
8.52
1.45
-5.94
-13.67
-21.49
-28.92
-35.31
-40.07
-42.71
-43.00
-40.94
-36.85
-31.21
-24.67
-17.82
-11.24
-5.42
-0.73
2.66
4.71
5.47
5.11
3.85
2.00
-0.12
-2.19
-3.92
-5.07
-5.42
-4.84
-3.34
-1.00
2.01
5.49
9.19
12.79
16.05
18.76
20.77
21.98
22.34
21.89
20.70
18.86
16.50
13.71
10.60
7.30
3.92
0.57
-2.68
-5.71
-8.44
-10.85
-12.91
-14.63
-16.07
-17.27
-18.31
-19.29
-20.29
-21.34
-22.47
-23.67
-24.88
-26.03
-27.00
-27.64
-27.84
-27.48
-26.47
-24.77
-22.36
-19.31
-15.68
-11.65
-7.36
-3.02
1.22
5.22
8.89
12.20
15.14
17.71
19.95
21.87
23.41
24.53
25.12
25.01
24.10
22.29
19.54
15.95
11.72
7.12
2.50
-1.75
-5.33
-7.96
-9.50
-9.96
-9.44
-8.19
-6.46
-4.59
-2.85
-1.47
-0.56
-0.19
-0.34
-0.94
-1.88
-3.04
-4.30
-5.55
-6.69
-7.63
-8.29
-8.63
-8.57
-8.11
-7.25
-6.01
-4.47
-2.70
-0.85
0.99
2.73
4.29
5.62
6.68
7.46
7.95
8.15
8.00
7.48
6.56
5.21
3.47
1.38
-0.93
-3.29
-5.47
-7.27
-8.49
-8.99
-8.72
-7.70
-6.07
-3.99
-1.72
0.51
2.48
4.01
5.03
5.47
5.42
4.94
4.19
3.31
2.42
1.62
0.98
0.51
0.19
0.00
-0.12
-0.23
-0.35
-0.49
-0.64
-0.78
-0.85
-0.83
-0.70
-0.44
-0.07
0.36
0.79
1.16
1.35
1.33
1.02
0.38
-0.63
-2.02
-3.79
-5.90
-8.27
-10.79
-13.31
-15.68
-17.68
-19.17
-20.00
-20.15
-19.62
-18.53
-17.10
-15.56
-14.22
-13.33
-13.05
-13.50
-14.65
-16.36
-18.39
-20.38
-21.94
-22.76
-22.49
-20.89
-17.86
-13.42
-7.71
-0.98
6.40
14.07
21.56
28.52
34.60
39.55
43.23
45.59
46.71
46.72
45.87
44.37
42.48
40.40
38.28
36.21
34.15
32.03
29.72
27.12
24.10
20.64
16.74
12.50
8.10
3.72
-0.40
-4.04
-7.05
-9.34
-10.87
-11.70
-11.95
-11.76
-11.30
-10.70
-10.08
-9.53
-9.13
-8.87
-8.77
-8.88
-9.15
-9.60
-10.19
-10.89
-11.65
-12.38
-13.03
-13.50
-13.75
-13.77
-13.54
-13.07
-12.38
-11.42
-10.22
-8.78
-7.12
-5.23
-3.17
-1.01
1.12
3.06
4.66
5.76
6.19
5.88
4.84
3.18
1.00
-1.51
-4.13
-6.70
-9.01
-10.90
-12.27
-13.06
-13.33
-13.23
-12.95
-12.68
-12.55
-12.63
-12.92
-13.38
-13.92
-14.45
-14.85
-15.03
-15.00
-14.77
-14.37
-13.88
-13.39
-12.98
-12.72
-12.62
-12.69
-12.88
-13.06
-13.05
-12.63
-11.66
-10.02
-7.71
-4.81
-1.43
2.31
6.26
10.25
14.11
17.68
20.88
23.63
25.93
27.83
29.36
30.63
31.66
32.52
33.25
33.91
34.51
35.04
35.43
35.61
35.50
35.02
34.05
32.52
30.45
27.83
24.75
21.30
17.58
13.74
9.95
6.35
3.05
0.19
-2.17
-4.02
-5.36
-6.27
-6.84
-7.14
-7.29
-7.34
-7.35
-7.33
-7.26
-7.08
-6.82
-6.42
-5.89
-5.21
-4.42
-3.59
-2.88
-2.47
-2.55
-3.31
-4.83
-7.12
-10.10
-13.58
-17.37
-21.17
-24.68
-27.56
-29.58
-30.57
-30.49
-29.37
-27.38
-24.70
-21.57
-18.24
-14.94
-11.93
-9.38
-7.43
-6.15
-5.52
-5.49
-5.96
-6.82
-7.98
-9.29
-10.61
-11.83
-12.79
-13.39
-13.53
-13.17
-12.32
-11.05
-9.37
-7.41
-5.26
-3.05
-0.89
1.18
3.12
4.90
6.53
8.07
9.50
10.82
11.96
12.88
13.52
13.81
13.68
13.11
12.06
10.59
8.79
6.81
4.80
2.91
1.24
-0.12
-1.14
-1.82
-2.18
-2.28
-2.15
-1.88
-1.53
-1.15
-0.78
-0.46
-0.21
-0.08
-0.09
-0.23
-0.52
-0.95
-1.50
-2.12
-2.74
-3.32
-3.78
-4.05
-4.11
-3.88
-3.34
-2.48
-1.32
0.13
1.79
3.57
5.37
7.02
8.40
9.37
9.81
9.60
8.69
7.07
4.78
1.95
-1.24
-4.57
-7.80
-10.69
-13.03
-14.65
-15.39
-15.16
-13.98
-11.93
-9.19
-6.02
-2.71
0.47
3.28
5.50
7.00
7.71
7.61
6.79
5.40
3.64
1.75
-0.02
-1.50
-2.56
-3.15
-3.32
-3.07
-2.46
-1.51
-0.24
1.32
3.10
5.05
7.01
8.85
10.42
11.59
12.22
12.27
11.69
10.52
8.83
6.72
4.35
1.92
-0.42
-2.53
-4.30
-5.74
-6.82
-7.54
-7.89
-7.90
-7.56
-6.89
-5.94
-4.74
-3.35
-1.89
-0.54
0.52
1.12
1.18
0.66
-0.41
-1.93
-3.80
-5.84
-7.89
-9.74
-11.19
-12.09
-12.36
-12.03
-11.22
-10.07
-8.70
-7.19
-5.59
-3.88
-2.07
-0.10
2.05
4.45
7.09
9.92
12.83
15.57
17.97
19.78
20.87
21.18
20.68
19.43
17.55
15.15
12.37
9.40
6.41
3.70
1.50
-0.01
-0.68
-0.55
0.25
1.50
2.97
4.41
5.67
6.60
7.08
7.10
6.60
5.65
4.25
2.52
0.56
-1.49
-3.51
-5.37
-6.97
-8.27
-9.28
-10.07
-10.71
-11.27
-11.80
-12.28
-12.68
-12.97
-13.11
-13.04
-12.70
-12.08
-11.23
-10.20
-9.05
-7.84
-6.65
-5.59
-4.77
-4.26
-4.08
-4.24
-4.73
-5.51
-6.56
-7.90
-9.44
-10.96
-12.20
-12.84
-12.77
-12.14
-11.26
-10.55
-10.49
-11.29
-12.81
-14.62
-16.25
-17.43
-18.25
-18.99
-20.07
-21.94
-24.69
-27.84
-30.47
-31.70
-31.19
-29.30
-26.87
-24.96
-24.79
-26.85
-30.59
-34.60
-37.41
-38.11
-36.58
-33.29
-29.10
-25.46
-23.68
-24.45
-27.64
-32.37
-37.04
-39.35
-36.82
-24.79
-2.57
25.25
50.63
66.84
71.63
67.06
57.18
45.69
34.58
23.76
12.55
1.02
-9.82
-18.79
-25.38
-30.05
-33.97
-38.44
-44.57
-52.35
-60.51
-66.51
-67.82
-62.85
-51.28
-33.92
-12.24
11.91
35.97
58.48
79.00
97.43
113.56
126.77
136.25
141.26
141.44
137.18
129.95
121.80
114.61
109.53
106.61
104.99
103.41
100.73
96.48
91.35
86.64
83.46
82.28
82.89
84.70
86.77
87.59
84.80
75.62
57.97
31.90
0.49
-30.67
-55.50
-69.86
-73.25
-68.61
-60.56
-53.02
-47.87
-44.88
-43.09
-42.02
-42.23
-44.78
-50.19
-58.24
-67.44
-75.72
-81.28
-83.10
-81.35
-77.35
-72.85
-69.48
-68.18
-68.70
-70.00
-70.74
-69.77
-66.94
-62.88
-58.66
-55.14
-52.32
-49.28
-45.15
-40.09
-35.09
-31.27
-28.39
-24.26
-15.48
0.53
23.87
51.02
75.14
90.94
96.87
95.03
88.14
77.18
57.79
25.23
-21.61
-76.99
-128.17
-160.24
-161.97
-130.95
-73.99
-3.84
65.85
123.81
161.66
174.40
161.13
126.20
79.27
34.06
5.05
3.47
34.14
93.02
167.96
242.98
303.37
338.91
345.67
325.85
286.61
237.50
185.12
133.54
85.49
43.13
7.42
-22.17
-47.27
-70.07
-93.03
-121.73
-160.89
-211.00
-267.94
-325.56
-378.58
-423.83
-460.05
-466.02
-428.94
-352.38
-254.84
-156.63
-69.46
3.61
63.80
113.31
151.95
178.73
191.32
189.73
177.03
157.51
134.18
107.81
80.88
55.86
32.48
9.45
-13.08
-33.32
-48.72
-57.68
-59.94
-56.18
-48.10
-39.16
-32.70
-29.91
-30.17
-31.77
-33.12
-33.29
-31.81
-28.99
-26.27
-25.28
-26.45
-29.66
-33.94
-38.29
-41.91
-44.45
-46.03
-47.33
-50.94
-55.53
-59.94
-62.61
-62.23
-58.28
-51.39
-43.16
-35.44
-29.64
-25.83
-23.52
-21.56
-19.90
-20.26
-25.11
-36.09
-51.88
-67.83
-76.95
-73.16
-52.66
-16.21
31.17
81.77
127.40
161.26
178.67
178.04
156.62
118.44
74.03
37.77
23.37
39.09
83.94
146.83
210.13
255.91
273.32
261.84
230.01
190.70
155.74
131.60
118.01
110.56
105.60
102.28
101.95
104.94
108.57
108.61
101.52
85.24
60.99
33.18
7.78
-10.13
-19.23
-22.42
-24.26
-28.32
-38.00
-55.12
-79.78
-112.03
-146.08
-171.49
-183.26
-181.04
-167.59
-149.53
-132.55
-118.36
-105.35
-90.45
-71.98
-50.71
-35.41
-24.91
-19.32
-18.84
-21.85
-25.32
-25.90
-22.15
-15.76
-10.38
-9.82
-14.32
-26.78
-48.29
-77.65
-112.54
-151.41
-194.59
-243.44
-283.74
-306.00
-307.64
-293.40
-272.05
-250.37
-229.99
-207.48
-176.81
-132.49
-76.25
-15.80
39.10
80.40
104.69
113.65
112.38
106.72
101.11
95.16
86.52
73.93
58.36
42.60
29.40
19.96
13.60
8.83
2.64
-6.96
-19.84
-33.98
-46.43
-54.79
-57.90
-56.89
-52.26
-45.51
-37.84
-29.60
-20.20
-8.92
4.39
18.96
33.38
46.06
55.32
60.23
60.78
57.85
52.65
46.23
39.11
31.49
23.32
14.22
3.86
-7.99
-21.17
-35.54
-51.24
-68.67
-88.06
-109.45
-132.64
-156.99
-181.53
-203.99
-222.14
-234.32
-241.37
-243.94
-242.74
-238.43
-231.43
-222.06
-208.43
-189.09
-163.93
-134.53
-103.18
-72.12
-42.70
-15.11
11.36
41.31
79.16
127.11
184.42
248.60
316.72
386.56
457.01
527.61
602.40
684.66
774.17
866.29
953.48
1027.69
1082.26
1112.90
1087.08
986.80
813.10
586.28
337.10
94.46
-122.29
-304.06
-449.17
-556.34
-629.22
-670.96
-685.60
-679.24
-659.18
-632.01
-602.26
-572.03
-542.54
-511.11
-474.35
-431.29
-384.01
-336.50
-292.77
-255.44
-225.47
-202.68
-184.34
-166.55
-147.15
-126.16
-105.00
-85.17
-67.34
-51.26
-36.33
-21.27
-3.54
17.75
41.82
66.93
91.55
115.20
138.42
162.13
187.16
216.27
250.70
289.99
332.40
375.81
418.62
460.21
501.06
542.31
588.32
641.21
698.91
754.55
798.23
820.63
816.76
787.87
720.88
614.68
476.93
322.12
167.02
25.54
-93.83
-187.56
-255.97
-301.93
-326.77
-333.41
-326.17
-309.74
-288.32
-265.04
-241.89
-220.01
-201.47
-186.15
-174.29
-166.63
-164.15
-167.24
-175.36
-186.98
-200.44
-214.01
-224.51
-229.27
-226.83
-217.13
-201.52
-182.71
-160.51
-136.80
-114.01
-93.19
-74.52
-57.37
-40.70
-23.55
-5.64
12.72
30.11
44.96
56.52
64.74
69.77
71.52
69.21
60.89
44.15
16.31
-24.75
-80.04
-149.07
-229.44
-315.96
-400.46
-473.21
-525.32
-551.87
-553.67
-536.67
-509.82
-481.67
-457.40
-438.12
-421.58
-404.39
-383.36
-356.66
-323.98
-286.21
-244.78
-200.79
-154.79
-107.43
-60.07
-15.50
22.77
51.97
71.66
84.27
94.34
106.52
123.53
145.87
172.17
200.15
227.10
249.56
262.88
262.12
243.65
206.79
153.80
88.92
17.10
-56.54
-125.78
-183.50
-222.19
-236.47
-225.86
-195.85
-156.30
-117.75
-87.43
-67.27
-54.82
-45.85
-37.02
-27.27
-17.33
-8.37
-0.58
7.18
16.68
29.46
46.02
65.68
87.57
111.80
139.21
170.31
203.50
234.04
254.95
259.38
243.68
209.30
162.35
111.40
64.31
26.49
0.42
-13.30
-14.67
-4.04
17.10
44.58
71.33
89.00
91.18
76.58
50.28
22.13
2.75
-0.93
11.54
34.75
60.76
82.95
98.14
106.31
108.22
103.40
90.33
68.41
40.63
14.32
-1.05
2.19
25.84
64.58
107.51
142.65
161.35
161.08
145.39
121.59
97.73
79.79
70.52
69.59
74.72
82.77
90.83
96.66
98.73
96.28
89.48
79.51
68.45
58.77
52.47
50.31
51.43
53.78
55.09
53.88
49.91
43.95
37.06
30.03
23.23
16.81
10.84
5.34
0.13
-5.26
-11.39
-18.34
-25.59
-32.01
-36.33
-37.72
-36.05
-31.82
-26.01
-19.75
-14.28
-10.79
-10.07
-12.09
-15.71
-18.88
-19.45
-16.12
-9.04
0.14
9.12
15.98
19.94
21.31
21.13
20.38
19.43
18.12
16.03
12.90
8.82
4.11
-0.95
-6.25
-11.72
-17.05
-21.39
-23.36
-21.51
-14.98
-4.24
8.87
21.54
30.94
35.01
33.17
26.44
17.18
8.45
3.07
2.62
6.68
12.93
18.06
19.31
15.73
8.59
0.77
-4.83
-6.63
-4.86
-1.16
2.59
5.17
6.27
6.09
4.88
2.67
-0.44
-4.04
-7.32
-9.41
-9.90
-9.12
-8.02
-7.62
-8.35
-9.83
-11.09
-11.17
-9.74
-7.28
-5.03
-4.32
-5.99
-9.89
-14.77
-18.54
-19.17
-15.50
-7.84
1.80
10.64
16.14
17.07
13.90
8.46
2.92
-1.06
-2.76
-2.34
-0.22
3.26
7.80
12.72
16.74
18.31
16.31
11.07
4.60
0.00
-0.06
5.29
14.46
24.06
30.49
31.62
27.81
21.52
15.90
13.17
13.54
15.45
16.70
15.89
13.01
9.15
5.52
2.55
-0.12
-3.09
-6.25
-8.51
-8.24
-4.28
3.08
11.85
19.08
22.01
19.21
11.27
0.63
-9.20
-14.68
-13.47
-5.34
7.61
21.68
32.89
38.54
38.11
32.99
25.51
17.52
9.75
1.67
-7.34
-17.11
-26.40
-33.70
-38.58
-42.31
-47.34
-55.61
-66.65
-76.97
-81.10
-74.21
-55.00
-27.22
1.35
21.96
28.76
21.31
4.49
-14.17
-27.98
-33.87
-32.96
-28.92
-25.50
-24.47
-25.03
-24.84
-21.86
-15.78
-8.13
-1.53
1.78
1.02
-2.84
-7.63
-11.05
-11.68
-9.27
-4.70
0.86
6.56
12.04
17.27
21.98
25.37
26.23
23.81
18.24
10.75
3.21
-2.69
-6.00
-6.70
-5.47
-3.22
-0.65
1.78
3.92
5.85
7.72
9.66
11.60
13.12
13.55
12.32
9.33
5.30
1.50
-0.99
-1.89
-1.98
-2.62
-4.80
-8.50
-12.79
-16.59
-19.41
-21.77
-24.43
-27.56
-30.11
-30.17
-26.08
-17.72
-7.00
2.84
8.56
8.14
1.21
-11.23
-27.10
-43.37
-56.01
-60.41
-52.77
-32.10
-1.87
30.24
54.71
64.21
56.90
37.28
14.01
-4.42
-13.50
-13.92
-9.87
-5.81
-3.67
-2.41
0.50
6.63
15.11
22.88
26.43
23.77
15.49
4.26
-6.48
-14.03
-17.24
-16.56
-13.40
-9.26
-5.06
-1.09
2.79
6.59
9.78
11.17
9.29
3.19
-6.75
-18.46
-28.58
-33.51
-30.81
-20.33
-4.53
12.28
25.47
31.84
30.69
23.76
14.14
4.80
-2.52
-7.52
-10.59
-12.07
-11.72
-9.08
-4.23
1.70
6.73
8.90
7.50
3.49
-0.94
-3.36
-2.28
2.19
8.44
14.22
17.51
17.36
14.05
8.87
3.41
-0.99
-3.62
-4.43
-3.64
-1.63
1.16
4.05
6.01
5.89
3.13
-1.57
-6.04
-7.47
-3.77
5.05
16.66
27.25
33.25
32.76
26.06
15.00
1.94
-10.95
-21.78
-28.75
-30.29
-25.90
-17.19
-8.01
-3.51
-7.53
-20.15
-36.63
-48.91
-49.22
-34.18
-7.12
22.89
44.90
51.24
40.94
19.91
-2.28
-17.18
-21.26
-16.88
-9.93
-6.11
-7.73
-12.91
-17.39
-17.30
-11.56
-2.21
7.00
12.79
13.89
11.22
6.78
2.24
-1.55
-4.42
-6.14
-5.96
-2.97
2.96
10.45
16.73
18.86
15.28
6.83
-3.43
-11.62
-14.87
-12.50
-6.01
2.03
9.16
13.87
15.68
14.75
11.56
6.85
1.83
-1.91
-2.81
0.01
6.05
13.47
19.83
23.20
23.00
20.34
17.30
15.73
16.25
17.82
18.50
16.52
11.38
4.19
-2.79
-7.46
-8.83
-7.43
-4.99
-3.35
-3.69
-6.12
-10.01
-14.54
-19.14
-23.34
-26.45
-27.15
-23.76
-15.32
-2.73
10.94
21.20
24.25
18.98
7.83
-4.30
-12.35
-13.63
-8.94
-1.62
4.38
6.71
5.42
2.43
0.12
0.07
2.54
6.70
11.34
15.15
17.07
16.50
13.47
8.86
4.23
1.11
0.39
1.74
3.83
5.13
4.72
2.71
0.09
-1.98
-2.90
-2.90
-2.82
-3.62
-5.60
-8.19
-10.26
-10.65
-8.80
-4.92
0.24
5.87
11.51
16.96
21.86
25.27
25.73
22.02
14.12
3.88
-5.45
-10.61
-9.98
-4.54
2.62
7.98
9.29
6.65
2.06
-1.92
-3.60
-2.90
-1.03
0.52
0.94
0.38
-0.41
-0.92
-1.29
-2.24
-4.44
-7.74
-10.96
-12.29
-10.35
-4.96
2.37
9.05
12.61
11.88
7.45
1.23
-4.70
-9.29
-12.89
-16.71
-21.71
-27.73
-33.36
-36.80
-37.28
-35.91
-35.74
-40.41
-52.37
-71.22
-93.42
-113.34
-125.44
-126.53
-116.92
-100.25
-81.94
-67.05
-58.55
-56.65
-59.34
-63.38
-65.70
-64.21
-58.10
-47.69
-34.08
-18.88
-3.87
9.28
19.16
24.94
26.55
24.87
21.47
18.42
17.55
19.74
24.59
30.61
35.88
38.99
39.65
38.66
37.14
35.65
33.66
29.79
22.72
12.40
0.63
-9.20
-13.05
-7.89
6.91
28.80
52.50
71.51
80.52
77.48
64.53
47.29
32.41
24.95
26.33
34.36
44.67
53.13
57.58
58.22
56.70
54.56
52.33
49.35
44.65
37.93
30.00
22.45
16.69
13.21
11.21
9.38
6.84
3.81
1.53
1.44
4.16
8.97
14.11
17.50
17.89
15.31
10.90
6.32
2.96
1.44
1.55
2.60
3.87
4.91
5.57
5.85
5.80
5.55
5.29
5.37
6.12
7.45
8.58
8.23
5.16
-0.83
-8.38
-14.98
-17.89
-15.51
-8.19
1.81
11.31
17.43
18.65
15.26
9.02
2.44
-2.27
-3.94
-2.73
0.05
2.54
3.20
1.42
-2.32
-6.61
-9.93
-11.26
-10.39
-7.85
-4.48
-1.26
0.86
0.80
-2.38
-9.04
-18.39
-28.11
-34.80
-35.05
-26.87
-10.68
10.35
31.15
46.35
52.07
47.15
33.55
15.58
-1.70
-14.42
-21.36
-24.05
-25.73
-29.34
-35.87
-43.99
-50.92
-54.15
-52.64
-47.04
-38.78
-28.99
-18.14
-6.23
6.28
18.08
27.26
32.09
31.96
27.65
20.91
13.74
7.69
3.49
1.09
-0.05
-0.61
-1.17
-1.95
-2.85
-3.56
-3.74
-3.37
-2.82
-2.78
-3.98
-6.86
-11.30
-16.55
-21.33
-24.25
-24.15
-20.65
-14.34
-6.77
-0.05
3.88
4.03
0.89
-3.80
-7.59
-8.60
-6.41
-2.12
2.17
4.64
4.57
2.75
0.80
0.23
1.68
4.64
7.91
10.33
11.28
10.65
8.53
4.91
-0.24
-6.57
-12.94
-17.48
-18.17
-13.80
-4.81
6.48
16.72
22.82
23.28
18.73
11.42
3.81
-2.52
-7.45
-11.87
-16.58
-21.61
-26.03
-28.54
-28.25
-25.29
-20.65
-15.53
-10.70
-6.15
-1.45
3.76
9.23
14.07
17.13
17.61
15.49
11.72
7.86
5.40
5.11
6.66
8.67
9.48
8.14
4.90
1.15
-1.28
-1.18
1.39
5.08
8.05
8.89
7.35
4.26
0.98
-1.52
-3.00
-3.87
-4.64
-5.39
-5.67
-4.81
-2.49
0.92
4.47
7.00
7.77
6.76
4.53
1.87
-0.66
-2.88
-4.86
-6.54
-7.56
-7.27
-5.19
-1.40
3.22
7.27
9.41
8.84
5.74
1.13
-3.60
-7.26
-9.31
-9.78
-9.01
-7.27
-4.70
-1.50
1.75
4.19
5.11
4.48
3.13
2.46
3.60
6.68
10.66
13.83
14.72
12.93
9.35
5.67
3.36
3.03
4.12
5.26
5.02
2.66
-1.46
-5.99
-9.16
-9.79
-7.79
-4.29
-1.06
0.42
-0.33
-2.70
-5.44
-7.41
-8.25
-8.36
-8.44
-8.81
-8.92
-7.59
-3.73
2.74
10.50
17.08
20.10
18.38
12.68
5.42
-0.63
-3.60
-3.33
-1.11
1.34
2.96
3.78
4.53
5.94
7.99
10.04
11.30
11.51
11.04
10.70
11.07
12.11
13.28
13.91
13.67
12.80
11.76
10.88
10.13
9.33
8.53
8.37
9.74
13.28
18.63
24.28
28.17
28.66
25.54
20.25
15.36
13.32
15.31
20.73
27.54
33.35
36.46
36.58
34.47
31.48
28.37
25.08
20.76
14.47
5.93
-4.20
-14.79
-24.97
-34.35
-43.47
-53.28
-64.35
-76.16
-86.80
-93.46
-93.64
-86.43
-72.39
-54.09
-35.52
-20.90
-12.98
-11.92
-15.14
-18.27
-16.99
-7.14
13.41
44.08
81.25
118.79
149.41
166.55
166.54
150.26
125.49
104.25
98.87
117.19
159.38
217.94
280.36
333.30
356.18
335.75
270.83
174.64
69.15
-25.58
-98.86
-149.75
-182.73
-203.17
-213.02
-212.49
-202.45
-186.09
-168.69
-155.23
-148.06
-146.40
-147.43
-146.67
-140.79
-129.03
-113.46
-97.88
-85.73
-78.56
-75.74
-75.26
-74.06
-69.89
-62.08
-51.79
-41.29
-32.66
-26.93
-23.86
-22.37
-20.81
-17.85
-12.90
-6.20
1.39
8.97
15.97
22.15
27.47
32.01
35.77
38.65
40.37
40.56
38.98
35.50
30.15
23.13
14.82
5.83
-3.03
-10.84
-16.77
-20.37
-21.75
-21.48
-20.34
-19.08
-18.18
-17.73
-17.59
-17.37
-16.52
-14.58
-11.08
-5.69
1.43
9.45
17.30
24.05
29.56
34.62
40.27
47.51
56.62
66.84
76.59
84.30
89.13
91.30
92.07
92.57
93.76
95.85
98.30
100.05
100.05
97.61
92.21
86.52
81.76
78.55
76.67
75.25
73.04
68.95
62.41
53.62
43.61
33.50
24.73
18.39
14.95
14.08
14.76
15.86
16.46
16.29
15.17
13.21
10.37
6.56
1.83
-3.23
-7.49
-9.75
-9.36
-7.06
-4.54
-3.62
-5.48
-9.95
-15.67
-20.90
-24.35
-25.83
-26.09
-26.33
-27.43
-29.68
-33.00
-37.48
-43.45
-51.15
-59.81
-67.15
-69.87
-65.08
-52.06
-33.17
-13.23
2.67
11.29
12.50
8.72
3.14
-2.09
-6.55
-11.01
-16.21
-21.91
-26.96
-30.12
-30.95
-30.14
-29.10
-29.08
-30.68
-33.48
-36.41
-38.46
-39.16
-38.92
-38.84
-40.27
-44.13
-50.56
-58.81
-67.53
-75.42
-81.61
-85.89
-88.65
-90.60
-92.34
-94.33
-96.89
-100.24
-104.67
-110.32
-116.92
-123.68
-129.33
-132.47
-132.12
-128.08
-121.05
-112.52
-104.19
-97.55
-93.49
-91.98
-92.24
-92.94
-92.63
-90.10
-84.97
-77.59
-68.99
-60.45
-52.97
-47.04
-42.57
-39.11
-36.07
-33.01
-29.56
-25.50
-20.77
-15.52
-10.14
-5.26
-1.52
0.71
1.43
1.25
0.97
1.35
2.82
5.34
8.50
11.69
14.31
15.94
16.52
16.25
15.51
14.73
14.09
13.55
12.82
11.71
10.26
8.84
7.86
7.59
7.91
8.35
8.44
7.90
6.81
5.40
3.88
2.29
0.56
-1.14
-2.48
-2.93
-2.02
0.36
3.91
7.95
11.59
13.85
13.80
10.69
4.26
-4.87
-15.07
-23.93
-28.79
-27.75
-20.43
-8.15
6.51
20.60
31.81
39.15
42.94
44.32
44.50
44.26
43.81
43.08
42.13
41.13
40.09
38.46
35.05
28.50
18.17
4.92
-8.80
-19.67
-24.75
-22.74
-14.47
-2.58
9.49
18.65
23.05
22.34
17.58
10.66
3.81
-1.12
-3.25
-2.82
-0.90
1.15
2.22
1.83
-0.01
-3.14
-7.56
-13.33
-20.26
-27.54
-33.78
-37.45
-37.73
-35.01
-31.24
-29.17
-31.39
-39.17
-51.89
-67.29
-82.33
-94.20
-101.12
-102.70
-99.68
-93.22
-84.46
-74.18
-62.93
-51.18
-39.29
-27.20
-14.03
1.93
22.55
48.63
78.83
109.26
134.43
149.17
150.69
139.84
120.80
99.53
81.31
69.10
62.95
60.83
60.08
58.78
56.48
53.92
52.27
52.06
52.84
53.36
52.23
48.69
43.06
36.62
31.06
27.78
27.31
29.12
31.89
33.99
34.15
31.85
27.55
22.50
18.22
15.92
16.01
18.00
20.70
22.90
23.86
23.68
23.02
22.53
22.24
21.47
19.21
14.88
9.02
3.12
-0.91
-1.77
0.50
4.52
8.27
9.99
8.96
5.65
1.16
-3.31
-6.94
-9.34
-10.24
-9.47
-6.84
-2.49
3.01
8.64
13.30
16.23
17.17
16.43
14.44
11.62
8.21
4.54
1.09
-1.41
-2.32
-1.54
0.38
2.39
3.43
2.99
1.41
-0.39
-1.43
-1.18
0.07
1.56
2.36
1.88
0.04
-2.88
-6.35
-9.87
-12.98
-15.28
-16.39
-16.09
-14.39
-11.67
-8.68
-6.32
-5.37
-6.19
-8.59
-11.73
-14.49
-15.81
-15.03
-12.26
-8.26
-4.07
-0.60
1.69
2.96
3.67
4.35
5.30
6.50
7.72
8.66
9.05
8.74
7.75
6.20
4.38
2.70
1.53
1.10
1.34
1.94
2.51
2.88
3.09
3.43
4.13
5.13
5.96
5.93
4.48
1.48
-2.47
-6.29
-8.74
-9.08
-7.32
-4.27
-1.13
1.01
1.62
0.82
-0.86
-2.76
-4.48
-5.83
-6.68
-6.74
-5.59
-3.04
0.62
4.43
7.18
7.96
6.68
4.16
1.78
0.77
1.64
4.06
7.04
9.53
10.79
10.62
9.31
7.43
5.74
4.95
5.57
7.52
10.18
12.36
12.84
11.04
7.42
3.44
0.85
0.84
3.26
6.67
9.03
8.74
5.60
0.85
-3.40
-5.25
-3.78
0.63
6.77
13.21
18.97
23.68
27.39
30.38
32.88
35.23
37.81
41.15
45.66
51.42
57.94
64.22
69.11
71.99
73.14
73.96
76.36
81.66
89.28
96.00
96.71
86.22
61.93
25.55
-16.90
-57.24
-88.39
-106.94
-113.73
-112.19
-105.54
-94.92
-79.35
-57.47
-29.88
0.13
27.25
46.05
52.73
45.76
25.55
-6.11
-46.25
-90.59
-133.35
-168.12
-189.49
-194.70
-184.40
-161.83
-131.34
-96.68
-60.59
-24.55
10.68
44.52
76.17
104.71
129.11
148.25
161.41
167.92
169.42
170.54
177.68
195.74
225.09
260.50
292.77
312.29
310.82
286.24
243.13
190.22
135.83
84.75
38.08
-5.08
-45.61
-86.56
-129.31
-172.62
-213.40
-248.75
-277.15
-298.21
-311.76
-317.41
-319.12
-320.47
-323.07
-326.62
-331.35
-339.47
-354.82
-381.18
-393.53
-375.49
-327.44
-266.32
-210.69
-169.11
-139.66
-114.35
-83.80
-41.13
10.82
63.86
108.91
140.17
156.32
159.87
155.64
148.64
142.25
134.34
121.81
103.89
83.38
64.63
50.98
43.51
41.51
42.64
43.84
43.02
40.30
37.79
37.84
41.55
48.45
56.97
65.33
71.68
74.93
75.33
74.30
73.44
73.75
75.43
78.12
81.45
85.68
91.42
99.50
110.55
124.07
138.24
150.38
158.23
156.62
144.49
123.59
97.66
71.19
47.87
29.82
17.36
9.50
4.60
1.66
-0.23
-1.80
-3.58
-5.98
-9.20
-13.13
-17.34
-21.26
-23.95
-25.00
-24.60
-23.47
-22.41
-22.03
-22.47
-23.55
-25.02
-26.34
-27.15
-27.19
-26.19
-24.00
-20.73
-16.86
-13.17
-10.41
-8.81
-7.97
-7.00
-4.85
-0.79
5.20
12.35
19.40
25.14
28.88
30.64
31.01
30.78
30.56
30.51
30.37
29.78
28.61
27.08
25.91
25.89
27.74
31.76
37.52
43.79
48.41
48.69
42.07
27.16
4.59
-22.78
-50.46
-73.57
-88.31
-93.09
-88.91
-78.76
-66.51
-55.62
-48.27
-45.07
-45.37
-47.80
-50.79
-53.07
-53.81
-52.73
-49.98
-45.97
-41.18
-36.02
-30.66
-25.06
-18.92
-11.94
-4.06
4.34
12.56
19.67
24.76
27.12
26.46
22.96
17.14
9.81
1.88
-5.69
-11.92
-15.87
-16.88
-14.93
-10.75
-5.77
-1.61
0.54
0.46
-1.16
-3.04
-4.03
-3.61
-1.97
0.24
2.35
3.89
4.76
5.11
5.32
5.90
7.32
9.89
13.57
17.79
21.48
23.49
22.97
19.80
14.85
9.63
5.73
4.11
4.59
5.83
5.90
3.06
-3.24
-12.16
-21.64
-29.38
-34.02
-35.65
-35.83
-36.86
-40.85
-49.19
-62.32
-80.05
-101.48
-124.91
-147.69
-166.50
-178.34
-181.99
-178.93
-172.91
-168.27
-167.49
-169.79
-171.45
-167.80
-155.55
-134.21
-105.94
-73.83
-40.44
-6.96
26.14
58.14
87.14
110.53
125.93
132.36
131.01
124.77
117.36
111.97
110.30
112.06
115.09
116.46
113.92
107.16
97.99
89.55
84.61
84.15
86.91
90.18
91.47
89.86
86.67
84.82
87.49
96.46
110.63
125.83
135.86
134.91
120.11
93.34
60.83
30.90
10.42
2.01
3.71
10.67
18.31
24.39
29.28
34.32
39.79
44.00
44.23
38.74
28.27
16.25
7.21
4.60
9.01
17.90
26.93
32.11
31.54
26.00
18.20
11.30
7.49
7.37
10.15
14.31
18.34
21.23
22.48
22.11
20.55
18.64
17.49
18.18
21.33
26.70
33.33
39.82
44.99
48.17
49.21
48.17
44.97
39.34
31.21
21.08
10.30
0.85
-5.29
-6.84
-3.69
2.94
11.01
18.14
22.22
21.71
15.69
3.53
-15.08
-39.80
-69.07
-99.80
-127.93
-149.86
-164.00
-171.50
-175.54
-179.39
-184.32
-188.70
-188.70
-180.41
-161.97
-134.82
-103.30
-73.16
-49.49
-35.22
-30.33
-32.03
-35.98
-37.91
-35.24
-27.90
-17.90
-7.93
0.21
6.36
11.79
17.98
25.33
32.73
38.13
39.82
37.45
32.33
26.91
23.54
23.43
26.16
30.02
32.96
33.60
31.80
28.67
25.77
24.40
24.87
26.54
28.27
28.99
28.21
26.09
23.13
19.87
16.60
13.40
10.22
7.11
4.24
1.78
-0.23
-1.95
-3.72
-5.79
-8.14
-10.35
-11.77
-11.71
-9.88
-6.62
-2.78
0.43
1.92
1.20
-1.39
-4.70
-7.21
-7.56
-5.20
-0.65
4.70
9.18
11.65
11.93
10.79
9.44
8.83
9.14
9.82
9.90
8.66
5.94
2.35
-1.07
-3.14
-3.11
-0.86
3.02
7.37
10.91
12.69
12.39
10.28
7.06
3.43
-0.12
-3.34
-6.04
-7.90
-8.59
-8.02
-6.68
-5.59
-6.03
-8.74
-13.33
-18.27
-21.43
-21.23
-17.44
-11.41
-5.43
-1.49
-0.38
-1.29
-2.55
-2.56
-0.81
2.06
4.69
5.88
5.18
3.00
0.43
-1.37
-1.51
0.39
4.09
8.84
13.46
16.80
18.13
17.41
15.34
13.04
11.54
11.29
11.99
12.67
12.29
10.12
6.24
1.49
-2.69
-4.92
-4.34
-1.05
3.92
8.97
12.39
13.03
10.33
4.36
-4.37
-14.96
-25.95
-35.33
-40.78
-40.47
-33.81
-22.13
-8.49
3.35
10.31
11.33
7.72
2.60
-0.62
0.26
5.27
12.53
19.26
23.16
23.43
20.86
17.22
14.12
12.37
11.68
11.17
10.15
8.48
6.65
5.33
4.89
5.08
5.18
4.47
2.67
0.20
-1.99
-2.83
-1.71
1.14
4.57
6.92
6.64
2.97
-3.67
-11.79
-19.34
-24.50
-26.28
-24.84
-21.28
-17.05
-13.41
-10.92
-9.56
-8.91
-8.64
-8.75
-9.50
-11.05
-13.11
-14.80
-14.92
-12.48
-7.34
-0.41
6.61
12.02
14.82
15.11
13.83
12.21
10.97
10.21
9.61
8.86
8.08
7.65
7.92
8.80
9.78
10.17
9.59
8.21
6.57
5.22
4.30
3.51
2.38
0.69
-1.40
-3.46
-5.08
-6.24
-7.31
-8.86
-11.36
-14.88
-18.99
-22.99
-26.08
-27.50
-26.72
-23.53
-18.15
-11.39
-4.53
0.98
4.11
4.60
3.20
1.27
0.27
1.11
3.78
7.57
11.48
14.73
17.09
18.75
20.01
21.01
21.60
21.48
20.54
19.16
18.15
18.40
20.25
23.20
26.00
27.32
26.46
23.75
20.29
17.39
15.85
15.62
16.00
16.28
16.17
15.95
16.05
16.72
17.89
19.48
21.49
24.18
27.92
32.99
39.54
47.23
55.51
63.91
72.01
79.06
83.76
84.56
80.52
72.24
61.56
51.52
45.52
45.96
52.92
63.68
73.46
77.47
72.80
58.34
35.47
7.96
-19.10
-41.10
-55.36
-61.74
-62.06
-59.24
-58.16
-64.06
-80.79
-109.48
-148.64
-194.89
-243.96
-291.16
-322.59
-326.02
-297.04
-242.35
-175.32
-108.40
-49.14
-0.48
37.44
65.57
85.34
96.36
97.79
89.69
72.86
48.09
15.62
-24.58
-71.64
-123.53
-176.73
-226.16
-266.16
-292.33
-303.03
-299.53
-284.77
-261.94
-234.32
-204.85
-175.42
-146.81
-118.86
-91.03
-62.66
-33.39
-3.43
26.04
53.29
77.13
97.51
115.60
132.87
150.41
168.38
185.91
201.12
211.80
216.42
215.00
209.55
203.51
200.65
203.41
211.75
222.68
231.19
232.15
221.92
199.55
167.00
128.57
89.86
56.30
31.52
15.91
6.39
-2.42
-15.65
-35.59
-60.28
-84.28
-101.27
-106.73
-99.73
-82.54
-59.32
-34.37
-11.02
8.86
25.05
39.06
53.54
70.86
91.24
111.64
126.66
131.18
123.42
106.50
86.96
71.15
61.83
57.03
51.80
41.88
26.79
10.28
-1.96
-5.81
-1.24
7.51
14.27
13.96
4.88
-10.84
-28.80
-44.48
-54.90
-59.44
-59.37
-56.66
-53.15
-49.73
-46.37
-42.39
-36.84
-28.86
-18.19
-5.44
7.95
20.02
28.98
33.69
33.97
30.68
25.39
19.90
15.73
13.77
14.22
16.83
21.06
26.40
32.34
38.58
44.82
50.63
55.43
58.68
60.23
60.41
59.94
59.78
60.91
63.97
68.74
74.06
78.34
80.34
79.36
75.14
67.69
57.64
46.34
35.46
26.77
21.53
19.89
20.33
20.04
16.30
8.23
-2.85
-15.39
-29.43
-47.20
-71.88
-105.60
-147.68
-194.34
-239.81
-273.92
-287.11
-275.57
-244.00
-202.06
-158.12
-116.13
-76.83
-40.13
-6.39
22.37
43.83
56.95
63.34
66.32
69.30
74.08
81.49
89.37
93.50
89.92
76.62
54.30
25.32
-7.54
-42.80
-79.27
-115.21
-150.65
-186.25
-222.40
-258.27
-291.24
-316.90
-329.88
-329.72
-312.66
-279.84
-236.75
-191.03
-149.43
-115.60
-89.73
-69.91
-53.85
-40.26
-30.27
-24.98
-23.54
-22.56
-17.16
-2.93
18.45
43.45
67.54
85.91
96.49
101.10
104.98
114.68
135.45
168.67
211.16
255.67
292.07
310.86
305.78
275.34
223.36
158.41
92.22
37.69
5.10
-1.59
13.79
40.73
66.18
80.17
80.18
71.57
64.30
66.61
80.31
100.17
117.59
125.70
123.04
113.09
100.69
88.38
74.89
57.16
34.38
10.58
-6.26
-8.07
8.39
38.73
72.62
98.60
109.36
104.72
90.64
75.30
64.92
61.16
61.23
60.15
53.32
37.89
12.91
-21.40
-63.59
-110.37
-156.02
-193.26
-215.80
-221.51
-213.98
-201.03
-190.52
-185.65
-183.00
-174.59
-153.02
-116.49
-70.67
-26.25
6.41
21.91
21.75
12.50
1.93
-4.38
-4.46
0.54
8.05
15.73
22.43
28.31
34.32
41.46
50.13
59.48
67.46
71.53
69.75
61.83
49.50
35.90
24.30
16.96
14.42
15.74
19.21
23.30
26.99
29.65
30.59
28.61
22.43
11.33
-3.98
-21.09
-36.42
-46.60
-49.78
-46.33
-38.54
-29.50
-21.84
-17.10
-15.64
-17.24
-21.32
-26.96
-32.63
-36.34
-36.21
-31.43
-22.88
-12.93
-4.57
-0.11
-0.34
-4.30
-9.91
-14.85
-17.54
-17.45
-15.18
-11.93
-8.91
-6.69
-4.95
-2.82
0.65
5.68
11.49
16.56
19.33
19.07
16.30
12.58
9.72
9.04
10.85
14.44
18.60
22.06
24.05
24.46
23.75
22.70
21.91
21.54
21.16
19.96
17.19
12.67
7.00
1.56
-1.94
-2.05
1.86
9.35
19.16
29.42
38.24
44.04
45.91
43.61
37.48
28.23
16.90
4.97
-5.79
-13.57
-17.06
-16.11
-11.74
-5.87
-0.51
2.94
4.15
3.60
1.99
-0.38
-3.84
-9.10
-16.60
-25.91
-35.85
-44.78
-51.55
-55.92
-58.75
-61.29
-64.21
-67.03
-68.01
-65.16
-57.44
-45.58
-31.86
-19.07
-9.33
-3.47
-1.32
-2.41
-6.56
-13.65
-23.08
-33.05
-40.63
-42.70
-37.12
-24.02
-5.86
13.29
29.21
38.87
41.44
38.27
32.03
25.56
20.73
18.10
17.05
16.66
16.33
16.05
16.10
16.65
17.45
17.86
17.44
16.29
15.14
14.95
16.33
19.07
22.16
24.22
24.14
21.58
17.15
12.07
7.70
4.92
3.74
3.41
2.79
1.08
-1.62
-4.39
-5.96
-5.47
-3.11
-0.10
1.92
1.88
-0.26
-3.45
-6.26
-7.59
-6.98
-4.41
0.06
6.40
14.21
22.26
28.52
30.83
28.17
21.54
13.92
9.05
9.74
16.41
26.88
37.38
44.51
46.83
45.46
43.38
43.76
48.47
57.13
67.49
76.61
82.33
84.27
83.87
83.52
85.48
91.07
100.24
111.56
122.37
129.09
127.75
114.98
89.22
51.86
7.44
-37.43
-76.50
-106.33
-127.58
-144.14
-160.47
-178.61
-196.71
-209.86
-212.88
-203.36
-183.27
-158.33
-135.49
-119.93
-113.11
-112.81
-114.71
-114.48
-109.55
-99.44
-85.36
-69.12
-52.24
-35.73
-20.29
-6.83
3.50
9.74
11.71
10.44
7.80
5.69
5.17
6.22
8.07
10.00
11.81
13.81
16.31
19.31
22.32
24.59
25.45
24.37
21.00
15.38
8.04
0.08
-6.88
-11.37
-12.60
-10.84
-7.22
-3.10
0.56
3.63
6.69
10.66
16.12
23.08
30.77
37.85
42.81
44.36
42.02
36.35
28.85
21.32
15.24
11.27
9.20
8.44
8.47
9.11
10.41
12.40
14.85
17.41
19.86
22.04
23.91
25.23
25.64
24.84
22.96
20.67
18.94
18.52
19.25
20.29
20.37
18.45
14.23
8.26
1.58
-4.66
-9.51
-12.44
-13.36
-12.76
-11.64
-11.20
-12.21
-14.48
-16.73
-17.10
-14.25
-8.19
-0.61
6.03
9.46
8.97
5.38
0.26
-5.23
-11.00
-17.64
-25.38
-33.00
-38.03
-38.06
-32.18
-21.88
-10.46
-1.60
2.58
2.11
-1.24
-5.20
-8.11
-9.44
-9.33
-8.11
-6.05
-3.32
-0.46
1.63
1.95
-0.24
-5.01
-11.65
-18.87
-25.66
-31.43
-36.47
-41.84
-48.69
-57.56
-67.80
-77.35
-83.51
-84.18
-79.08
-70.16
-61.07
-55.59
-56.45
-64.34
-78.35
-97.06
-119.35
-144.36
-170.72
-195.70
-215.32
-225.48
-223.49
-209.14
-184.74
-154.15
-121.12
-88.25
-56.57
-26.52
0.82
23.32
38.56
45.34
45.01
41.76
40.96
47.46
63.15
86.34
112.82
138.47
161.55
183.18
205.97
230.84
256.32
277.95
290.44
290.19
277.12
254.39
226.26
197.57
171.64
151.89
140.76
138.87
144.04
151.45
155.33
150.42
135.92
114.19
91.63
74.59
67.19
70.57
84.23
107.51
138.62
176.19
201.44
196.83
152.63
73.31
-25.69
-126.83
-210.22
-274.74
-322.35
-355.03
-371.36
-369.11
-347.49
-309.13
-260.66
-210.49
-166.20
-129.43
-97.28
-62.86
-20.25
32.34
91.92
153.43
212.95
268.26
319.43
364.34
398.00
413.34
404.72
371.21
318.05
254.77
190.90
134.36
89.22
57.15
38.72
33.72
40.81
57.34
80.12
106.90
137.95
174.58
216.67
260.36
298.09
321.27
324.41
307.71
276.87
240.13
204.21
171.98
142.78
114.58
86.49
59.58
35.71
16.09
0.15
-14.37
-30.29
-49.52
-72.15
-96.26
-118.61
-135.84
-145.57
-147.16
-141.74
-131.75
-120.00
-108.87
-99.77
-92.87
-87.27
-81.29
-73.18
-61.88
-47.68
-32.32
-18.45
-8.69
-4.60
-6.34
-12.80
-22.34
-33.49
-45.11
-56.24
-65.94
-73.14
-76.92
-76.93
-73.44
-67.25
-59.19
-49.72
-38.64
-25.43
-9.69
8.39
27.22
44.64
58.62
67.88
72.06
71.54
67.09
59.59
49.79
37.75
23.43
7.02
-11.14
-30.59
-51.12
-72.57
-94.38
-115.38
-134.95
-152.00
-165.34
-174.16
-178.85
-181.28
-184.16
-189.64
-197.95
-210.15
-224.86
-238.65
-247.40
-248.74
-243.46
-234.54
-224.84
-215.46
-212.09
-217.94
-232.57
-252.08
-272.34
-291.62
-310.77
-331.40
-354.32
-389.76
-444.83
-519.83
-607.16
-695.51
-775.36
-840.62
-888.35
-918.16
-945.75
-985.66
-1044.10
-1115.85
-1189.07
-1253.23
-1302.44
-1335.34
-1268.29
-1055.20
-704.30
-280.53
135.33
489.17
763.05
963.02
1104.78
1204.97
1263.55
1279.76
1258.69
1213.56
1162.03
1115.30
1077.39
1047.58
1023.10
989.84
936.79
861.95
773.18
683.03
601.52
533.80
480.79
440.31
405.67
369.49
328.25
283.30
237.64
192.02
144.77
93.44
36.78
-31.05
-112.86
-205.96
-302.36
-392.16
-467.03
-521.22
-551.25
-555.69
-540.93
-514.67
-483.68
-452.93
-426.48
-408.68
-404.03
-416.37
-419.97
-400.39
-355.05
-291.15
-217.06
-136.80
-52.28
32.70
111.53
176.98
220.37
239.21
237.98
225.05
208.47
192.88
179.53
168.13
158.69
148.35
135.50
120.17
103.29
86.21
69.80
54.60
41.22
30.58
21.68
13.09
6.51
3.90
7.30
17.77
35.54
60.47
92.20
128.36
164.72
195.17
212.57
212.10
193.39
162.33
129.16
104.27
93.34
95.95
107.02
119.99
130.39
136.41
137.76
133.95
123.26
103.55
74.58
39.39
1.37
-34.33
-64.88
-90.57
-113.18
-133.54
-149.47
-156.43
-150.22
-130.36
-101.26
-71.32
-49.14
-39.94
-43.68
-55.49
-68.48
-76.25
-74.22
-59.31
-29.79
14.67
72.00
136.61
199.58
250.70
281.35
287.58
271.27
238.47
196.60
151.89
107.92
65.71
25.18
-13.88
-51.52
-87.88
-124.03
-162.18
-205.27
-255.88
-314.84
-379.80
-444.76
-501.14
-540.42
-557.37
-552.13
-530.03
-499.26
-467.33
-438.38
-412.61
-387.76
-361.38
-332.64
-302.31
-271.71
-241.35
-210.51
-177.79
-142.36
-104.86
-67.40
-33.07
-4.47
17.33
33.14
45.11
55.73
66.68
78.26
89.45
98.59
104.51
107.24
108.09
109.07
112.03
117.59
125.00
132.48
138.05
140.61
140.51
139.55
140.40
145.12
154.88
169.28
186.29
202.59
214.50
219.00
214.95
203.71
188.56
173.83
163.25
158.51
159.26
163.62
169.79
177.35
187.67
202.07
221.57
245.31
270.26
291.74
304.83
305.89
294.38
274.69
252.80
237.99
238.15
256.36
288.86
324.85
349.59
349.71
320.51
262.05
186.26
109.92
49.32
15.81
11.63
29.52
55.83
78.39
81.68
61.50
20.64
-32.58
-84.73
-122.88
-138.12
-127.47
-91.29
-42.79
9.56
57.61
96.40
128.53
160.40
199.31
215.64
247.44
284.37
320.37
347.45
359.03
356.83
347.42
340.34
344.02
363.40
392.87
429.41
465.89
461.86
390.71
247.04
50.87
-132.22
-278.64
-390.88
-472.48
-534.62
-579.70
-602.67
-599.39
-570.01
-520.60
-463.59
-411.10
-367.48
-333.60
-306.55
-279.00
-244.82
-201.07
-149.02
-95.10
-43.87
3.84
46.99
83.48
110.89
125.42
123.71
104.15
65.65
11.12
-54.13
-124.70
-194.34
-254.53
-295.34
-307.81
-287.64
-238.65
-169.65
-92.33
-17.82
46.08
95.18
127.35
141.49
137.82
119.17
92.56
67.31
50.89
44.75
43.33
37.69
21.37
-4.94
-32.85
-50.36
-48.20
-24.47
14.17
55.55
87.15
100.38
92.48
65.51
24.23
-25.69
-78.27
-127.90
-169.33
-197.85
-209.58
-201.89
-174.44
-130.45
-76.60
-21.29
27.78
66.11
93.44
112.27
125.67
134.96
138.98
135.32
122.59
101.62
75.34
47.70
21.49
-2.37
-24.49
-45.22
-62.61
-72.00
-68.72
-51.74
-25.49
0.41
14.85
9.83
-15.60
-56.26
-99.40
-130.07
-138.72
-125.77
-99.71
-70.43
-43.69
-20.42
1.48
23.99
46.58
66.06
79.14
84.48
83.53
80.02
77.96
80.17
87.35
98.59
108.94
113.17
107.59
91.09
65.05
32.43
-3.50
-39.79
-73.92
-105.42
-134.75
-162.22
-187.54
-210.03
-229.25
-245.24
-257.68
-265.14
-264.93
-253.68
-229.39
-193.41
-151.04
-109.95
-77.55
-57.64
-49.69
-49.86
-53.46
-57.18
-59.80
-62.07
-63.62
-63.38
-59.82
-51.93
-40.03
-25.84
-11.68
0.30
9.29
16.27
22.94
30.96
41.06
52.83
64.63
74.28
80.05
81.31
79.19
75.39
71.34
67.50
63.68
58.68
51.01
39.85
25.55
10.52
-2.29
-10.39
-12.50
-7.72
3.56
20.27
41.89
66.39
93.85
124.97
160.61
201.22
247.48
297.57
346.43
386.21
408.27
406.95
381.17
335.52
270.83
195.56
121.42
58.93
13.74
-14.08
-26.66
-27.03
-17.81
-1.99
17.33
36.10
50.38
59.20
61.84
59.76
54.38
46.55
35.64
20.01
-2.02
-31.24
-66.74
-106.19
-145.67
-183.37
-216.17
-243.40
-266.94
-289.24
-311.80
-334.28
-354.76
-369.21
-375.59
-373.20
-352.93
-311.03
-249.59
-176.18
-100.66
-37.47
13.61
54.58
86.48
108.39
117.05
108.41
79.51
29.60
-39.31
-120.91
-207.22
-288.11
-353.52
-397.44
-418.75
-421.21
-411.41
-395.98
-378.51
-360.69
-342.01
-321.33
-298.87
-275.49
-251.83
-227.54
-201.13
-170.37
-134.52
-94.00
-50.31
-5.95
36.80
76.22
111.31
141.63
167.22
187.94
203.97
215.91
224.58
231.07
236.32
240.95
245.28
249.58
254.19
259.75
267.23
277.92
293.43
315.56
346.01
385.26
431.48
479.55
521.52
548.73
554.93
538.92
504.45
458.48
408.23
359.06
313.57
272.29
235.20
202.76
176.48
156.67
141.64
128.20
113.64
97.17
80.25
65.88
57.23
56.94
64.16
74.78
83.54
87.17
85.59
81.52
78.79
80.33
87.59
97.32
102.62
95.75
71.84
29.56
-29.52
-101.40
-187.43
-277.73
-355.34
-404.35
-419.25
-406.24
-378.64
-349.28
-324.58
-305.18
-283.15
-252.98
-213.46
-173.61
-143.30
-130.44
-137.83
-161.22
-191.01
-214.84
-222.49
-209.33
-177.59
-133.53
-84.00
-38.73
-6.38
9.33
11.13
3.70
-9.63
-28.36
-52.37
-80.90
-111.37
-139.84
-162.56
-177.35
-185.20
-188.96
-193.30
-199.09
-204.82
-207.67
-204.52
-193.40
-174.43
-150.33
-125.17
-102.96
-86.02
-75.11
-69.53
-67.57
-67.21
-66.73
-67.79
-71.35
-77.99
-87.31
-98.47
-110.42
-122.07
-132.51
-141.20
-148.05
-152.61
-154.34
-152.57
-146.90
-137.35
-124.35
-108.63
-90.96
-71.93
-51.36
-28.85
-4.06
22.79
50.73
78.16
103.39
125.07
142.57
156.23
166.91
175.69
184.06
194.03
208.04
228.06
254.12
283.27
310.00
328.07
333.30
325.64
309.33
290.81
275.68
266.44
262.15
260.16
258.24
256.01
254.68
255.80
260.03
266.82
275.09
284.18
294.17
305.13
316.06
323.91
323.75
310.22
279.75
232.45
172.78
108.25
46.86
-5.68
-47.89
-82.11
-112.15
-140.24
-164.81
-180.53
-180.63
-160.42
-120.21
-66.56
-10.82
34.13
57.70
54.40
24.33
-27.78
-94.18
-165.37
-231.00
-280.95
-306.80
-304.14
-273.98
-223.57
-164.69
-109.88
-68.35
-43.31
-31.82
-26.70
-19.89
-4.34
23.26
62.19
108.45
156.07
198.65
230.63
249.22
254.18
249.14
238.79
227.82
220.08
217.93
222.22
231.79
244.83
258.68
272.13
283.69
291.61
294.00
288.81
274.63
250.78
219.56
174.21
115.16
48.43
-15.98
-68.18
-103.18
-117.23
-117.18
-110.60
-103.47
-98.07
-95.73
-99.91
-113.33
-138.41
-176.56
-228.61
-293.07
-367.30
-446.36
-524.61
-595.75
-652.85
-689.54
-701.27
-687.26
-650.02
-595.24
-529.33
-458.36
-386.81
-317.25
-251.32
-190.28
-135.54
-87.28
-44.15
-2.95
40.08
87.85
141.54
200.15
260.81
319.49
371.88
413.69
441.52
453.62
451.15
438.80
423.69
413.15
411.71
419.08
430.21
437.50
434.15
416.87
386.57
346.85
301.43
252.27
199.26
141.87
80.92
19.34
-38.63
-89.57
-132.78
-171.14
-209.73
-252.64
-299.91
-346.04
-381.66
-397.78
-389.72
-359.07
-312.29
-257.50
-201.46
-148.16
-99.93
-59.13
-28.93
-12.27
-10.38
-21.64
-42.12
-66.73
-90.18
-107.26
-113.17
-104.73
-82.25
-50.59
-18.00
6.93
18.42
15.01
-1.20
-26.75
-58.96
-95.76
-135.06
-173.86
-208.17
-233.90
-247.94
-248.56
-235.74
-212.01
-182.93
-156.30
-139.19
-134.39
-138.24
-142.15
-136.97
-117.63
-85.31
-45.84
-5.68
30.93
63.09
91.80
117.64
139.19
153.18
155.89
145.32
122.68
92.67
62.65
40.45
31.26
35.02
46.55
57.99
63.10
59.79
49.72
36.35
22.53
9.71
-0.77
-6.17
-2.86
11.79
36.98
67.80
97.24
119.60
132.17
135.77
132.87
125.86
116.10
105.03
95.42
91.20
95.85
109.36
127.13
140.45
139.71
118.02
74.22
13.24
-55.70
-122.30
-175.33
-204.87
-205.66
-178.44
-130.06
-70.09
-7.39
48.82
95.80
131.18
152.72
157.97
146.46
119.26
78.45
27.29
-30.94
-93.24
-157.61
-221.22
-280.92
-325.39
-343.22
-327.14
-277.79
-204.12
-119.82
-43.77
16.57
58.21
81.39
88.07
81.98
67.99
52.68
42.58
40.51
43.51
40.63
19.64
-26.16
-94.46
-174.41
-249.73
-304.99
-331.72
-329.93
-305.91
-266.36
-215.87
-156.75
-91.19
-23.59
39.47
90.51
123.95
139.49
143.17
144.21
151.56
170.98
203.26
244.61
286.61
316.90
324.39
304.17
259.05
199.56
140.66
96.45
76.07
79.84
98.51
120.59
138.28
149.03
155.29
161.81
164.72
159.52
153.15
144.44
124.11
86.36
28.90
-46.04
-131.78
-218.26
-293.21
-345.99
-372.27
-371.81
-347.20
-304.20
-250.92
-197.25
-154.08
-130.36
-130.87
-154.77
-192.49
-227.66
-243.80
-230.50
-187.12
-121.94
-47.12
26.52
92.03
148.57
199.50
248.55
297.87
348.06
399.29
452.29
507.04
560.77
607.98
641.67
655.52
646.49
615.94
568.55
509.86
443.94
372.45
296.26
217.09
138.59
65.51
1.65
-51.49
-95.34
-133.19
-168.63
-203.94
-239.31
-272.77
-300.56
-318.77
-324.89
-319.22
-304.95
-287.27
-271.41
-261.06
-257.35
-259.20
-264.58
-271.60
-279.10
-286.27
-292.26
-295.90
-295.97
-291.84
-283.93
-273.83
-263.83
-256.34
-252.95
-253.90
-258.15
-263.55
-267.73
-268.81
-266.11
-260.25
-252.84
-245.66
-239.77
-234.93
-229.59
-221.62
-209.18
-191.52
-169.05
-142.86
-114.12
-83.83
-53.12
-23.65
2.31
22.64
36.41
44.82
50.97
58.83
71.57
90.30
113.93
139.94
165.74
189.73
211.58
231.94
251.69
271.54
291.85
312.83
334.79
358.16
383.25
409.86
436.61
460.63
477.70
483.11
473.31
447.44
408.17
361.37
314.39
273.98
244.20
225.76
216.49
212.69
210.49
206.75
199.61
188.60
174.68
159.88
146.59
136.40
129.03
121.83
110.11
88.77
54.48
7.49
-47.69
-103.15
-150.34
-183.07
-200.02
-205.38
-207.31
-214.69
-233.14
-262.13
-293.88
-315.54
-313.86
-280.75
-217.50
-135.50
-53.16
10.74
44.08
46.06
27.14
4.60
-4.42
11.03
52.78
113.84
181.77
243.22
287.47
309.04
308.19
290.09
262.64
233.87
209.26
190.57
176.32
163.09
147.58
127.58
101.52
67.56
23.81
-30.41
-92.27
-154.53
-206.63
-237.89
-241.55
-217.27
-171.38
-114.37
-57.30
-8.81
26.06
45.30
49.05
38.68
16.53
-14.02
-48.73
-82.88
-112.22
-133.51
-145.07
-146.90
-140.79
-129.79
-117.85
-108.98
-106.01
-109.30
-116.62
-124.53
-130.69
-136.01
-144.19
-159.53
-182.92
-209.51
-229.45
-232.04
-211.24
-169.56
-118.02
-71.72
-44.18
-42.90
-68.36
-115.54
-176.13
-240.23
-296.92
-335.54
-348.14
-332.19
-291.92
-237.69
-182.39
-136.46
-104.81
-86.12
-75.22
-66.16
-54.35
-36.73
-12.03
19.55
56.26
94.20
127.75
151.24
161.57
159.96
151.54
141.67
132.40
121.34
102.93
71.50
24.49
-35.81
-102.53
-159.52
-190.70
-185.27
-141.84
-68.66
20.81
113.62
200.65
276.59
337.15
381.81
409.85
420.88
416.58
401.30
380.65
359.93
342.41
329.33
319.69
310.84
300.12
286.34
270.12
252.95
236.10
219.54
201.95
181.08
154.49
121.05
81.61
38.75
-4.47
-45.75
-84.62
-122.46
-161.45
-203.73
-249.92
-298.54
-346.68
-391.18
-429.56
-460.63
-484.33
-500.56
-509.16
-509.78
-502.05
-485.72
-460.39
-424.84
-377.47
-317.57
-246.72
-170.20
-96.13
-32.84
14.15
44.18
60.66
68.12
68.70
60.71
39.76
2.14
-51.83
-116.57
-182.27
-238.01
-275.16
-290.00
-284.61
-265.65
-241.92
-221.32
-208.98
-206.21
-211.06
-219.83
-228.71
-234.86
-236.48
-232.22
-220.93
-201.85
-175.17
-142.60
-107.09
-71.97
-39.89
-11.60
13.94
39.04
66.02
96.13
128.88
162.09
192.55
217.13
233.55
240.79
239.06
229.51
213.89
194.19
172.47
150.76
131.07
115.20
104.40
99.26
99.64
104.77
113.59
125.08
138.50
153.59
170.71
190.60
213.80
239.99
267.36
292.59
311.58
320.73
318.19
304.60
282.97
257.61
232.77
211.43
194.78
182.42
173.03
165.07
157.38
149.39
141.00
132.35
123.69
115.18
107.04
99.42
92.40
85.76
78.96
71.20
61.85
50.85
38.78
26.84
16.27
7.88
1.85
-2.30
-5.37
-8.26
-11.77
-16.58
-23.13
-31.52
-41.41
-51.97
-62.15
-70.97
-77.76
-82.29
-84.75
-85.51
-85.01
-83.64
-81.66
-79.29
-76.73
-74.29
-72.33
-71.25
-71.24
-72.17
-73.43
-74.09
-73.19
-70.22
-65.35
-59.32
-53.03
-47.17
-41.95
-37.26
-32.95
-29.03
-25.61
-22.58
-19.40
-15.19
-9.14
-1.14
8.05
16.88
23.77
27.75
28.87
28.12
26.75
25.87
26.03
27.19
29.12
31.58
34.51
37.89
41.60
45.30
48.50
50.67
51.50
51.06
49.86
48.76
48.59
49.83
52.15
54.48
55.20
52.91
47.01
38.08
27.87
18.70
12.80
11.53
14.97
21.80
29.55
35.03
35.05
27.40
11.66
-10.28
-34.58
-56.62
-72.43
-80.04
-79.89
-74.42
-66.98
-60.63
-57.48
-58.42
-63.40
-71.71
-82.15
-93.10
-102.69
-109.18
-111.45
-109.28
-103.43
-95.35
-86.81
-79.41
-74.24
-71.71
-71.47
-72.52
-73.59
-73.33
-70.81
-65.70
-58.34
-49.65
-40.78
-32.75
-26.17
-21.09
-17.15
-13.71
-10.29
-6.62
-2.86
0.60
3.34
5.04
5.58
4.93
3.12
0.18
-3.72
-8.37
-13.44
-18.65
-23.91
-29.23
-34.76
-40.57
-46.56
-52.43
-57.88
-62.70
-66.95
-70.99
-75.25
-80.15
-85.84
-92.06
-98.04
-102.24
-102.43
-95.91
-80.29
-54.44
-19.39
21.55
63.58
101.92
133.22
156.25
171.55
180.32
183.45
181.13
173.32
160.57
144.45
127.34
111.51
98.25
87.60
78.79
70.82
63.13
55.75
48.98
43.21
38.82
36.49
37.41
43.01
54.16
69.89
86.89
99.62
101.78
88.65
59.12
16.37
-32.84
-79.79
-116.08
-135.22
-133.68
-110.96
-69.01
-11.51
56.63
129.69
201.60
266.67
320.41
359.84
383.20
389.82
379.70
353.17
311.52
257.96
198.00
139.38
89.41
51.52
25.41
7.96
-5.32
-18.17
-32.41
-48.31
-64.65
-80.77
-98.97
-120.76
-145.03
-169.08
-189.66
-204.18
-211.65
-211.23
-203.64
-194.57
-189.68
-191.61
-200.80
-214.56
-227.22
-231.70
-219.61
-186.09
-136.00
-77.29
-16.34
42.12
96.76
149.36
188.02
201.78
208.13
214.34
211.37
196.51
171.92
142.76
113.38
84.19
53.70
19.72
-20.88
-64.08
-97.89
-110.69
-97.39
-62.08
-16.07
29.43
67.07
92.16
105.76
113.11
118.37
123.65
129.94
138.28
151.77
174.13
206.26
247.02
293.21
336.98
367.67
375.81
356.56
312.62
253.08
189.81
134.39
95.51
75.90
73.58
84.95
106.06
133.47
163.02
189.39
206.58
209.68
194.44
155.14
92.09
11.85
-74.32
-154.91
-221.07
-272.85
-313.11
-345.94
-374.85
-402.49
-433.02
-467.30
-509.25
-562.25
-626.44
-695.50
-759.01
-804.04
-818.52
-795.41
-734.67
-643.50
-533.10
-416.78
-298.60
-186.01
-86.30
-3.43
63.51
119.58
170.64
221.10
270.89
316.75
355.71
385.68
405.36
413.51
408.57
388.70
353.16
301.53
235.06
156.71
70.95
-17.05
-102.63
-181.33
-248.74
-293.12
-304.27
-275.79
-208.73
-111.92
0.82
114.33
215.83
295.24
351.25
384.46
398.01
397.96
393.28
393.62
405.50
428.65
455.95
475.50
474.11
444.17
386.98
311.43
229.37
149.94
77.41
11.99
-47.24
-100.62
-146.05
-180.09
-200.24
-206.38
-202.28
-192.71
-181.72
-171.62
-163.03
-155.41
-148.37
-142.62
-140.47
-147.81
-169.63
-208.95
-266.66
-342.10
-433.62
-538.64
-653.10
-770.37
-884.18
-985.38
-1063.89
-1111.80
-1125.87
-1108.91
-1069.07
-1017.85
-942.97
-838.81
-704.60
-546.51
-376.76
-208.03
-48.44
100.27
239.30
369.33
485.14
578.95
646.57
686.18
698.99
689.81
666.36
635.50
601.60
564.85
524.78
482.41
441.12
406.94
382.11
371.22
377.22
393.68
412.25
425.07
427.07
416.95
396.93
370.89
343.29
316.94
293.03
271.89
252.63
232.70
208.07
174.45
129.57
75.71
18.88
-33.24
-73.45
-98.09
-108.14
-107.29
-99.64
-87.83
-72.77
-54.65
-36.47
-22.34
-16.20
-20.50
-35.08
-58.01
-86.63
-117.76
-146.92
-169.69
-181.73
-179.88
-164.30
-138.75
-109.78
-84.43
-66.99
-58.02
-54.62
-53.57
-51.76
-50.52
-51.40
-54.42
-55.83
-48.30
-25.15
16.30
69.61
122.74
163.43
184.91
187.14
175.65
157.88
138.60
118.33
94.59
65.60
32.31
-1.44
-30.99
-52.76
-64.78
-66.55
-58.39
-41.41
-16.40
15.72
52.84
91.29
125.92
151.05
161.78
155.44
130.99
91.68
47.62
11.98
-3.46
6.28
36.69
75.16
106.27
115.17
95.79
52.63
-2.92
-59.14
-109.68
-155.01
-199.96
-249.76
-311.44
-387.85
-476.53
-570.65
-661.40
-740.76
-802.92
-844.39
-838.13
-769.86
-642.81
-478.07
-303.81
-142.82
-7.53
97.88
175.28
229.16
261.38
274.67
273.14
261.71
244.66
224.95
204.60
187.65
179.49
182.77
198.35
224.15
255.04
284.00
307.20
320.29
323.14
317.81
305.11
285.23
257.89
223.56
184.00
142.07
97.23
54.70
17.68
-13.90
-41.25
-65.61
-86.98
-104.52
-117.19
-124.40
-125.67
-121.91
-115.02
-106.88
-98.73
-90.79
-82.74
-74.21
-65.15
-55.67
-46.40
-37.92
-30.24
-22.83
-14.47
-3.84
10.11
28.45
48.97
70.02
90.22
108.67
124.41
136.44
143.17
142.58
133.41
115.50
90.94
63.93
40.41
26.29
26.56
44.25
75.76
116.27
158.92
196.14
220.27
225.17
207.67
169.98
119.50
66.62
21.81
-8.83
-24.52
-28.63
-24.79
-17.31
-8.71
-1.11
2.47
-1.29
-15.82
-43.13
-83.35
-132.03
-182.74
-227.46
-258.28
-269.25
-258.16
-228.34
-187.90
-146.80
-113.55
-92.82
-84.06
-83.59
-87.34
-92.83
-99.57
-108.53
-118.06
-124.77
-124.73
-114.86
-94.33
-64.80
-29.45
8.02
43.97
76.60
105.32
129.78
149.40
163.36
171.51
175.03
176.17
176.73
176.63
172.57
159.29
132.77
93.04
45.20
-2.62
-42.51
-69.29
-80.96
-77.72
-60.44
-30.08
10.78
55.83
94.94
117.31
116.72
95.45
63.52
33.76
15.14
8.76
8.48
5.87
-4.07
-20.04
-35.95
-45.53
-46.32
-40.72
-34.09
-30.70
-31.29
-33.30
-33.11
-28.73
-20.82
-12.19
-5.83
-3.60
-5.22
-8.41
-10.35
-8.72
-2.65
6.93
17.77
27.59
34.94
39.78
43.26
46.84
51.31
56.18
59.64
59.12
52.43
38.63
18.63
-4.92
-28.66
-49.80
-66.62
-78.94
-87.72
-94.24
-99.70
-105.26
-111.20
-117.69
-123.84
-127.27
-124.49
-112.21
-89.28
-58.06
-24.09
6.13
27.37
37.94
39.84
36.98
32.98
29.66
26.85
23.71
19.96
16.21
13.72
13.31
14.69
16.62
17.68
16.70
13.66
9.48
5.40
2.59
1.50
1.74
2.27
2.05
0.39
-2.71
-6.57
-10.46
-13.60
-15.73
-17.05
-18.31
-20.15
-23.09
-27.22
-32.14
-37.64
-43.34
-49.10
-54.85
-60.80
-66.91
-72.87
-78.16
-81.88
-83.12
-80.90
-74.61
-64.00
-49.50
-31.68
-11.44
10.09
31.49
50.80
66.98
79.29
88.09
92.94
94.32
92.93
89.80
85.82
81.82
78.69
77.11
77.17
79.03
82.78
88.11
94.62
101.39
107.35
111.36
112.32
109.29
101.63
89.32
71.18
49.46
26.14
3.01
-18.31
-36.55
-50.89
-61.09
-67.42
-70.69
-71.60
-71.41
-71.51
-73.04
-76.79
-83.07
-91.56
-101.30
-110.98
-118.40
-121.85
-120.07
-112.45
-99.13
-80.97
-59.32
-35.72
-11.86
11.44
33.42
53.49
71.16
86.07
97.94
106.66
113.22
117.32
119.37
119.63
118.43
116.02
112.55
107.80
100.90
90.36
74.64
53.35
27.66
0.52
-24.11
-42.77
-53.74
-57.67
-56.93
-54.34
-51.62
-49.00
-45.62
-40.49
-33.45
-25.41
-18.21
-13.79
-13.71
-18.31
-26.67
-36.62
-45.48
-50.77
-51.08
-46.76
-39.61
-32.29
-27.14
-25.25
-26.23
-28.39
-29.70
-27.92
-22.00
-12.77
-3.00
3.47
3.56
-4.15
-18.73
-36.95
-54.16
-66.89
-73.02
-72.64
-68.62
-65.54
-68.67
-80.79
-99.41
-116.16
-119.59
-99.84
-53.50
14.42
93.10
169.24
232.05
275.79
299.56
304.88
293.79
268.30
226.27
171.60
111.49
54.43
7.53
-25.40
-44.30
-51.68
-51.09
-45.53
-35.93
-22.76
-6.49
11.71
29.78
45.08
55.17
58.41
54.49
45.03
32.18
18.18
4.77
-7.07
-17.19
-25.95
-33.93
-41.52
-48.43
-54.25
-58.50
-60.75
-60.77
-58.56
-54.48
-49.08
-43.07
-36.96
-31.26
-26.40
-22.61
-19.91
-18.17
-17.16
-16.67
-16.55
-16.62
-16.82
-17.17
-17.68
-18.24
-18.64
-18.60
-17.87
-16.31
-13.90
-10.81
-7.51
-4.56
-2.37
-1.14
-0.80
-1.09
-1.73
-2.60
-3.64
-5.32
-8.04
-11.78
-16.07
-19.97
-22.47
-22.85
-20.94
-17.11
-12.83
-9.59
-8.40
-9.43
-11.98
-15.11
-18.11
-20.95
-24.13
-29.49
-38.80
-53.03
-72.14
-95.11
-120.20
-145.08
-167.35
-178.70
-172.77
-147.88
-109.06
-66.75
-31.31
-7.99
4.45
10.85
17.34
27.30
41.00
57.10
72.99
86.49
96.29
102.02
103.28
101.95
101.57
107.34
125.20
156.64
196.96
235.79
259.89
256.20
218.01
147.05
53.06
-48.40
-143.85
-225.20
-290.48
-329.80
-338.08
-315.77
-269.90
-220.96
-176.71
-140.11
-111.26
-83.84
-51.11
-8.59
45.01
106.60
170.04
230.20
281.82
319.78
339.34
335.81
304.73
244.98
160.75
61.82
-38.29
-121.39
-172.81
-188.46
-176.11
-149.55
-120.24
-94.11
-72.27
-52.88
-34.81
-18.91
-6.73
0.65
3.37
3.16
2.09
2.23
5.48
12.64
22.50
32.79
41.01
45.23
44.50
38.47
26.98
9.89
-12.80
-40.13
-68.74
-92.93
-105.95
-102.81
-83.17
-51.94
-17.52
11.86
31.16
39.76
40.53
37.52
33.69
29.95
25.99
21.62
17.54
15.19
15.46
17.94
21.08
23.05
22.39
19.10
14.45
10.41
8.68
9.75
12.74
15.81
17.18
15.97
12.78
9.29
7.44
8.40
11.88
16.20
19.12
19.07
15.96
11.44
8.09
8.16
12.38
19.42
26.35
29.99
28.70
22.90
15.10
8.31
4.75
4.84
7.58
11.59
15.51
18.01
17.11
10.31
-4.08
-24.53
-44.97
-56.34
-51.22
-28.59
4.15
33.81
47.71
40.07
14.80
-17.31
-43.68
-56.98
-57.27
-49.76
-40.37
-32.16
-24.91
-17.09
-7.98
0.82
6.31
6.09
0.18
-8.95
-17.42
-21.62
-20.27
-15.06
-9.74
-8.26
-12.53
-20.88
-28.55
-29.58
-19.60
2.25
31.69
61.62
84.83
96.55
96.35
87.27
74.18
61.59
52.46
47.54
45.56
43.61
37.37
22.71
-2.79
-38.22
-79.00
-117.75
-146.73
-160.59
-157.09
-139.70
-114.05
-85.55
-57.80
-32.61
-10.86
6.57
18.80
25.41
26.81
24.84
21.88
20.00
20.18
22.11
24.59
26.28
26.35
24.56
21.72
19.03
17.49
17.48
18.68
20.34
21.70
22.32
22.11
21.40
20.66
20.18
19.99
20.02
20.13
20.59
21.74
23.96
27.31
31.44
35.64
38.94
40.65
40.29
38.11
34.43
29.51
23.28
15.19
4.62
-8.69
-23.98
-39.70
-53.61
-63.89
-69.76
-71.84
-72.22
-73.65
-78.83
-88.76
-104.46
-125.07
-147.74
-168.49
-180.74
-178.83
-160.05
-126.22
-82.79
-37.14
4.73
40.29
70.40
97.57
123.76
149.48
171.85
187.61
194.90
194.16
187.42
176.86
164.20
150.33
135.46
118.73
98.72
73.31
40.63
0.53
-44.15
-87.28
-120.68
-137.80
-137.09
-121.96
-99.01
-74.88
-53.92
-37.18
-23.40
-11.16
-0.43
7.54
11.09
9.23
1.92
-10.38
-27.18
-48.58
-75.05
-106.05
-139.34
-169.51
-189.34
-192.76
-177.63
-146.70
-106.66
-65.21
-27.58
3.74
29.28
51.44
72.34
92.17
109.91
124.46
135.63
146.88
157.54
166.48
172.18
172.83
166.96
154.47
136.61
112.46
86.45
61.06
37.65
16.40
-3.49
-22.90
-41.85
-59.59
-74.74
-85.47
-91.93
-94.59
-94.36
-92.44
-89.40
-84.70
-76.79
-63.82
-44.06
-18.30
10.97
40.64
67.41
88.87
104.26
114.36
120.87
127.80
135.39
143.91
153.35
161.97
166.40
162.07
144.64
112.08
66.66
14.35
-36.70
-75.54
-96.18
-99.10
-89.17
-72.49
-53.63
-34.71
-17.05
-1.34
11.16
18.33
18.61
12.06
0.65
-12.72
-25.21
-35.19
-42.88
-48.82
-53.87
-58.69
-63.48
-67.57
-69.78
-68.90
-59.33
-41.34
-16.64
12.29
42.26
70.26
94.64
114.88
130.68
143.39
152.77
158.76
161.25
159.05
151.64
140.17
126.87
113.99
102.82
92.26
80.16
63.03
38.26
3.19
-41.97
-94.00
-147.97
-198.42
-241.15
-272.84
-291.95
-302.25
-308.39
-313.15
-317.04
-319.58
-320.50
-321.09
-323.54
-309.58
-273.18
-220.78
-166.26
-120.73
-88.06
-66.45
-51.83
-38.87
-21.74
1.66
32.23
69.57
110.99
151.18
184.36
206.93
219.71
226.81
229.54
226.67
214.78
190.62
153.42
107.03
59.35
20.41
-1.43
-4.85
5.77
22.99
39.80
51.80
58.02
59.13
56.51
51.12
41.42
25.01
0.63
-31.16
-68.64
-104.86
-134.57
-154.03
-161.17
-157.28
-146.17
-132.34
-119.85
-111.92
-111.02
-120.38
-143.21
-180.81
-226.26
-268.78
-295.45
-297.38
-273.89
-232.14
-184.32
-146.67
-121.68
-107.11
-98.40
-90.15
-78.47
-61.83
-40.53
-16.43
9.10
36.99
68.15
102.91
141.15
182.00
224.56
268.68
314.49
361.59
408.18
449.10
477.22
486.32
473.26
438.97
387.89
325.81
257.74
187.06
115.04
42.91
-26.65
-89.99
-143.78
-186.56
-218.83
-241.49
-253.82
-252.96
-234.35
-193.89
-130.92
-50.15
38.50
121.91
187.05
224.43
230.89
211.18
177.04
143.33
122.82
121.31
135.24
153.88
164.69
158.84
135.05
99.60
62.75
35.34
25.58
36.90
66.90
108.08
150.20
183.67
202.66
205.24
193.83
173.14
147.97
121.25
94.24
67.74
43.42
23.48
7.32
-8.19
-28.26
-57.37
-97.90
-149.47
-209.48
-273.87
-328.24
-359.34
-361.68
-342.04
-313.22
-285.88
-264.97
-250.30
-238.64
-225.88
-210.87
-194.48
-179.81
-169.56
-165.11
-166.62
-172.87
-181.17
-188.02
-195.65
-202.12
-207.17
-210.95
-213.76
-216.03
-218.09
-220.46
-223.22
-226.50
-228.44
-225.93
-214.30
-189.58
-151.43
-103.85
-54.22
-9.87
24.72
47.46
59.41
64.27
65.92
66.05
64.28
59.95
54.10
49.89
51.36
60.97
78.05
99.02
118.92
133.81
142.41
146.38
148.70
151.78
156.54
162.07
167.39
171.42
173.77
174.27
172.94
169.68
163.87
154.92
142.14
126.96
111.31
97.18
85.93
78.13
73.81
72.69
74.39
78.41
87.01
101.88
123.49
150.49
180.25
209.80
236.91
260.26
279.26
297.52
318.30
343.46
372.27
402.04
429.69
452.73
469.61
457.76
404.56
309.35
185.53
53.20
-70.61
-176.62
-262.45
-329.77
-381.75
-416.35
-434.35
-436.48
-424.96
-403.69
-377.22
-349.61
-323.97
-302.10
-280.79
-256.63
-226.01
-187.00
-139.62
-85.22
-25.66
37.11
96.55
148.16
188.31
215.74
231.19
236.82
235.39
229.64
221.41
210.74
196.77
176.49
146.44
104.64
52.85
-2.94
-54.40
-94.39
-119.81
-131.41
-133.11
-129.19
-122.50
-114.07
-104.12
-93.23
-83.00
-75.42
-71.44
-70.55
-70.79
-69.84
-65.97
-59.05
-50.25
-41.54
-34.75
-30.53
-28.37
-26.83
-24.28
-19.64
-12.87
-4.76
3.31
9.97
14.72
17.69
19.58
20.99
22.23
23.38
23.98
23.46
21.74
19.30
16.81
15.06
14.25
13.71
12.27
8.55
1.54
-8.98
-22.33
-37.49
-52.98
-67.73
-81.69
-95.04
-107.84
-119.54
-128.91
-134.29
-134.83
-129.85
-119.90
-107.07
-93.92
-82.61
-74.74
-71.12
-71.70
-75.12
-77.46
-73.52
-58.48
-29.66
11.49
59.28
105.52
142.28
162.27
164.23
152.26
132.28
109.35
86.02
63.09
41.41
22.52
8.30
0.40
-1.32
1.08
4.86
7.41
7.46
5.43
2.87
1.07
1.04
2.34
3.16
1.71
-3.05
-10.77
-19.69
-27.65
-33.11
-35.58
-36.12
-36.77
-39.47
-45.17
-53.14
-61.46
-67.05
-66.86
-58.28
-40.25
-14.09
16.11
43.85
61.64
64.40
51.98
29.36
4.73
-13.91
-22.14
-20.13
-11.65
-1.75
5.92
9.49
8.81
5.10
1.08
-0.07
5.13
18.47
38.39
59.89
76.01
80.33
70.00
46.71
15.77
-15.89
-41.94
-57.87
-61.25
-52.32
-34.40
-13.43
2.64
6.84
-3.88
-27.08
-55.28
-78.03
-85.71
-73.09
-40.62
5.27
54.75
98.03
128.25
143.19
145.29
139.59
131.34
124.72
121.98
123.82
129.83
137.80
143.56
142.07
129.91
104.92
69.54
29.69
-7.79
-37.80
-58.91
-73.07
-83.27
-92.01
-100.05
-106.37
-109.45
-108.14
-102.11
-90.80
-75.44
-56.70
-35.52
-12.99
9.58
30.67
48.95
63.43
73.73
79.46
80.70
77.42
69.59
57.47
41.80
24.07
6.04
-10.51
-24.61
-35.95
-45.14
-53.09
-60.36
-66.70
-71.01
-72.03
-69.10
-63.09
-55.84
-50.01
-47.74
-49.71
-54.92
-61.07
-65.67
-66.97
-63.98
-56.72
-46.66
-35.68
-26.78
-23.39
-28.14
-41.24
-59.27
-75.34
-81.66
-73.24
-51.16
-22.90
0.58
9.78
1.90
-18.77
-43.25
-62.65
-72.29
-72.98
-68.90
-64.36
-60.42
-55.03
-45.28
-29.89
-10.80
8.40
23.27
32.07
36.39
40.07
47.00
58.94
74.82
91.14
103.49
108.16
103.64
89.93
68.86
43.76
18.84
-1.32
-13.21
-15.82
-11.21
-3.54
2.73
4.97
3.78
2.42
4.93
13.86
28.68
46.36
63.06
75.76
83.19
85.49
83.19
75.74
63.56
46.80
26.00
2.48
-21.65
-44.03
-62.60
-76.30
-85.13
-90.05
-92.86
-95.37
-99.06
-104.39
-110.81
-116.71
-120.30
-119.28
-112.03
-98.49
-79.93
-58.59
-36.87
-16.41
2.51
20.46
39.08
59.57
81.51
102.66
119.57
128.94
129.47
122.57
112.17
103.13
99.30
101.83
109.29
118.52
125.82
127.51
120.51
103.57
77.38
46.78
19.95
6.23
11.52
34.39
65.40
90.67
97.86
82.07
47.29
4.88
-31.50
-51.72
-53.23
-41.44
-26.68
-19.39
-25.84
-45.83
-73.14
-98.98
-116.12
-121.36
-116.73
-106.74
-95.10
-82.68
-68.06
-49.97
-29.37
-9.79
4.33
10.24
8.33
1.91
-4.37
-6.79
-4.13
2.25
9.58
14.96
16.88
15.65
12.90
10.67
10.44
12.63
16.60
21.47
26.41
30.82
34.49
37.07
38.04
36.63
31.96
23.11
9.26
-9.70
-32.37
-55.20
-73.21
-81.57
-77.73
-62.91
-41.78
-20.59
-4.64
3.83
5.88
3.96
0.46
-3.56
-8.18
-13.49
-18.73
-22.64
-24.01
-22.55
-19.85
-17.91
-18.35
-21.49
-25.73
-28.51
-27.19
-19.72
-5.28
15.29
39.30
62.15
78.05
82.44
73.74
54.66
31.44
11.33
-0.57
-3.06
1.19
7.68
13.04
16.21
18.26
20.96
25.11
29.78
33.37
34.61
33.43
31.38
30.54
32.65
38.30
46.64
55.70
63.09
66.99
66.47
61.83
54.07
44.39
33.55
21.58
8.05
-7.81
-25.97
-45.65
-65.14
-82.11
-94.37
-100.75
-101.38
-97.75
-92.07
-86.86
-83.57
-83.27
-86.49
-93.06
-101.47
-108.64
-110.28
-102.18
-82.60
-53.53
-20.54
9.47
30.98
42.05
44.50
42.28
39.06
36.50
34.21
30.71
25.33
18.67
12.31
7.78
5.75
5.67
6.18
5.69
3.17
-1.53
-7.70
-14.14
-19.67
-23.48
-25.58
-26.81
-28.19
-30.57
-33.97
-37.26
-38.49
-35.54
-26.86
-11.89
8.90
34.42
63.12
92.47
118.92
138.07
145.62
139.23
120.10
93.07
64.96
41.91
27.33
20.86
20.26
22.97
27.50
33.79
41.97
51.14
58.90
62.53
59.99
51.39
38.54
23.71
8.82
-5.61
-20.41
-37.04
-56.36
-78.39
-101.74
-124.17
-142.54
-152.97
-151.54
-135.77
-106.02
-65.60
-23.02
13.30
37.44
47.84
47.27
40.66
32.39
24.80
17.83
10.40
2.41
-4.91
-9.75
-10.79
-8.21
-3.69
0.42
1.88
-0.32
-5.37
-11.27
-15.83
-17.51
-16.11
-12.84
-9.72
-8.84
-11.48
-17.29
-24.63
-31.24
-35.19
-35.85
-34.23
-32.51
-33.17
-37.89
-46.53
-57.07
-66.32
-70.61
-67.05
-54.07
-32.22
-3.93
26.04
51.78
67.50
69.83
59.39
40.75
21.05
7.32
3.91
10.92
24.57
39.04
49.22
52.43
49.10
42.03
34.53
28.88
25.36
22.44
17.71
10.27
1.78
-3.73
-1.44
11.79
35.29
64.72
93.93
117.41
131.55
135.25
128.32
110.78
82.65
45.07
1.74
-40.77
-74.34
-92.02
-91.06
-74.20
-47.92
-20.18
2.12
14.76
16.05
7.07
-8.50
-24.92
-35.69
-35.47
-22.61
-0.08
25.06
43.89
49.08
37.57
12.23
-19.20
-47.12
-64.10
-67.65
-60.33
-48.09
-36.83
-29.58
-24.62
-17.71
-3.04
21.97
54.61
87.89
112.86
122.35
113.37
88.26
53.45
16.66
-16.66
-43.74
-63.61
-75.66
-78.54
-70.95
-52.64
-25.66
5.52
33.62
51.92
57.13
50.56
37.03
22.08
9.79
1.46
-4.49
-13.21
-30.14
-58.93
-100.62
-150.61
-203.29
-251.74
-288.46
-298.66
-275.52
-224.42
-161.55
-105.30
-67.43
-50.49
-49.67
-57.04
-66.49
-77.49
-91.94
-110.96
-133.12
-154.83
-172.61
-184.21
-190.00
-190.61
-188.86
-186.86
-184.40
-179.22
-168.20
-149.46
-122.46
-87.98
-49.12
-11.20
21.19
46.28
65.54
83.12
104.57
129.46
158.80
191.94
225.89
257.39
284.47
306.87
325.38
340.48
353.98
366.81
376.96
380.32
373.32
355.34
329.03
299.17
270.91
251.92
248.64
263.60
294.56
335.55
378.49
414.29
434.61
413.10
338.21
219.23
83.12
-41.38
-137.68
-203.52
-245.21
-270.80
-286.30
-291.91
-287.46
-275.21
-260.48
-248.90
-243.32
-243.26
-246.23
-249.81
-249.90
-246.22
-241.67
-242.00
-253.14
-278.17
-315.74
-360.03
-402.31
-431.91
-441.55
-429.32
-399.91
-361.93
-323.86
-290.84
-263.37
-238.31
-210.08
-177.59
-141.03
-102.29
-63.39
-25.56
10.80
45.40
77.25
104.54
124.48
134.75
133.90
122.18
101.11
73.00
40.13
4.35
-33.05
-71.12
-108.33
-142.66
-171.20
-191.13
-200.63
-199.27
-187.49
-166.08
-135.78
-96.79
-49.06
8.94
77.50
154.14
233.71
309.49
375.11
425.69
458.71
474.03
477.19
473.98
467.96
460.06
449.82
437.35
423.85
411.25
401.87
404.05
424.32
464.81
522.16
588.81
654.98
710.05
744.38
751.55
737.95
713.33
686.39
662.05
642.39
628.63
621.82
622.20
581.67
475.51
307.85
108.81
-87.25
-258.72
-397.55
-503.10
-578.04
-626.26
-645.38
-637.45
-608.19
-567.04
-524.17
-486.68
-457.47
-436.58
-422.61
-407.99
-386.22
-356.77
-324.09
-292.58
-266.22
-247.16
-235.93
-235.44
-240.54
-246.10
-250.03
-250.47
-248.55
-245.94
-243.39
-240.58
-236.47
-227.59
-211.97
-189.96
-164.03
-137.59
-113.10
-91.20
-71.70
-54.17
-37.73
-22.58
-9.78
-0.73
3.54
3.34
0.22
-4.10
-8.37
-11.89
-14.88
-17.98
-22.28
-28.84
-38.14
-49.69
-62.11
-72.97
-79.23
-78.08
-65.47
-41.71
-12.37
13.89
29.86
32.99
25.53
11.82
-4.34
-20.94
-38.07
-56.26
-75.31
-94.00
-110.76
-123.94
-133.16
-138.47
-140.38
-139.78
-137.18
-132.26
-124.32
-112.75
-96.93
-77.12
-54.27
-29.96
-6.25
15.22
34.00
51.11
64.78
75.32
83.76
91.29
98.77
106.32
113.72
121.31
129.86
140.51
155.05
174.97
201.03
232.95
269.30
307.51
344.68
376.45
397.22
401.80
386.78
352.76
304.81
251.31
201.04
161.61
136.26
123.94
121.23
124.45
131.26
140.96
153.78
161.34
157.39
137.97
102.95
55.85
2.04
-53.04
-104.76
-149.39
-184.06
-205.15
-210.25
-199.39
-175.46
-143.70
-110.64
-82.69
-64.55
-58.47
-63.21
-76.31
-94.95
-115.86
-134.79
-146.14
-144.33
-125.04
-89.54
-45.07
-4.12
20.54
21.48
-0.65
-38.35
-81.96
-124.13
-161.26
-190.71
-208.58
-208.57
-183.39
-130.00
-53.91
29.92
101.10
141.98
145.77
117.51
70.62
21.15
-19.12
-42.83
-47.07
-33.89
-12.79
10.61
32.74
50.15
58.26
52.36
31.74
0.96
-31.69
-57.14
-69.08
-67.47
-58.55
-49.57
-46.66
-50.75
-57.87
-62.94
-63.20
-59.50
-52.53
-52.69
-62.49
-82.10
-107.32
-131.21
-146.62
-147.76
-130.78
-94.49
-41.78
25.27
93.62
144.97
165.51
153.15
116.98
71.44
30.48
3.16
-6.53
-1.23
13.87
33.30
52.57
68.56
79.20
83.59
81.56
74.20
62.73
50.31
41.36
39.47
44.92
53.09
56.53
47.55
21.90
-19.28
-68.43
-114.09
-145.50
-154.67
-142.80
-117.08
-86.54
-58.03
-34.70
-16.28
-1.11
11.89
22.44
29.18
31.61
30.55
27.75
25.27
24.45
25.61
28.06
30.61
31.80
31.22
29.47
27.63
26.81
27.54
29.50
31.95
34.06
35.25
35.72
36.31
37.81
40.74
45.01
49.64
53.49
55.51
54.88
51.29
44.95
36.09
24.85
11.46
-4.19
-21.45
-38.95
-54.72
-66.69
-73.32
-74.11
-69.98
-62.69
-55.08
-49.37
-46.70
-47.01
-49.48
-53.17
-57.67
-63.38
-69.90
-78.95
-91.39
-107.25
-125.76
-145.15
-162.34
-172.99
-174.01
-160.85
-132.99
-93.60
-48.43
-3.92
35.47
68.40
96.22
120.25
142.07
161.15
175.72
184.83
189.09
190.72
192.41
196.17
202.62
211.16
220.55
226.01
223.11
208.36
180.68
142.27
98.59
56.56
22.39
-1.09
-14.75
-21.36
-23.93
-24.12
-22.19
-17.67
-10.59
-2.07
5.82
11.31
14.22
15.93
18.58
23.74
32.02
42.86
54.88
66.54
76.76
85.67
94.29
104.01
115.39
128.38
142.20
155.49
166.70
174.40
177.54
174.97
169.70
162.83
154.93
146.22
136.72
126.36
115.18
103.47
91.69
80.45
69.77
59.72
50.31
41.42
32.82
24.23
15.41
6.27
-3.01
-12.49
-21.85
-30.66
-38.54
-45.34
-51.28
-56.79
-62.42
-68.49
-75.30
-82.68
-90.18
-97.49
-104.62
-112.05
-120.68
-131.35
-144.49
-160.01
-177.13
-194.51
-210.98
-225.82
-239.19
-252.10
-266.38
-284.11
-306.78
-334.23
-364.03
-391.49
-410.68
-416.04
-403.93
-373.49
-326.53
-266.78
-199.00
-128.28
-59.71
2.33
54.64
95.72
125.65
145.44
156.16
158.62
153.68
142.95
129.23
115.92
105.77
99.70
96.68
94.53
91.74
88.54
86.85
89.06
96.63
109.28
124.95
140.55
153.02
160.45
162.51
160.19
154.91
147.49
137.63
123.97
104.91
79.26
47.57
12.13
-24.17
-59.21
-92.51
-124.87
-157.25
-189.70
-221.95
-252.02
-277.11
-295.48
-307.75
-317.11
-328.38
-346.76
-376.31
-420.16
-475.94
-535.14
-585.71
-616.74
-622.31
-603.10
-565.58
-519.04
-474.64
-437.40
-405.14
-372.00
-333.85
-290.87
-246.57
-204.93
-168.16
-139.07
-115.30
-90.13
-56.51
-10.94
46.04
112.33
185.75
287.21
412.75
535.73
624.89
666.07
665.38
639.05
603.53
569.69
541.47
514.64
485.05
453.46
423.24
395.97
369.55
339.11
299.33
246.34
180.52
108.92
42.09
-10.69
-45.98
-66.09
-76.44
-82.76
-89.36
-100.25
-116.21
-134.16
-148.10
-151.78
-140.92
-114.86
-77.44
-35.91
0.59
25.42
37.21
39.66
38.25
37.12
37.43
37.77
36.16
31.76
26.01
21.94
22.29
27.89
36.81
45.61
51.11
51.96
49.20
45.45
43.66
46.34
54.37
67.36
84.17
102.78
120.37
133.16
137.23
128.14
107.40
80.63
55.64
39.38
34.71
40.18
51.35
63.34
73.39
81.46
87.96
92.83
96.01
95.22
88.96
77.35
61.86
44.85
29.08
15.47
4.06
-4.96
-12.17
-17.70
-21.33
-22.78
-21.90
-18.86
-15.66
-14.24
-15.32
-20.20
-29.76
-44.76
-66.20
-94.99
-125.23
-154.78
-182.21
-205.18
-223.02
-235.58
-243.40
-247.78
-249.69
-250.03
-250.79
-258.93
-271.04
-283.31
-291.25
-289.30
-272.04
-235.30
-178.78
-108.05
-32.01
42.34
108.79
164.32
209.32
242.18
263.30
274.26
277.00
274.48
273.07
277.85
291.30
312.48
337.51
361.88
381.07
391.41
378.75
337.25
270.32
189.58
107.94
33.85
-29.11
-80.62
-121.72
-153.77
-175.79
-187.59
-190.65
-188.17
-184.11
-181.39
-181.60
-184.67
-189.84
-194.47
-196.43
-195.24
-191.95
-188.11
-184.49
-181.81
-177.70
-169.61
-154.53
-130.77
-98.65
-60.34
-18.87
23.06
62.26
97.24
127.48
153.39
175.09
191.98
202.92
207.16
204.75
197.06
186.61
175.79
166.61
160.44
157.98
159.05
162.17
163.83
159.24
144.03
116.20
77.93
35.44
-3.15
-31.22
-46.15
-49.89
-47.04
-42.01
-37.21
-32.69
-27.37
-20.65
-13.27
-6.73
-2.34
-0.24
0.75
2.24
5.77
11.72
19.23
26.31
31.16
31.94
27.99
19.80
8.90
-2.78
-13.55
-22.49
-29.71
-35.94
-42.37
-49.97
-59.18
-69.68
-80.57
-90.79
-98.89
-105.40
-111.08
-116.93
-123.58
-131.30
-140.06
-149.85
-160.47
-170.90
-178.71
-180.13
-171.56
-151.57
-122.36
-89.72
-60.90
-41.67
-33.90
-35.69
-42.63
-50.43
-56.32
-59.69
-60.51
-58.44
-52.35
-40.88
-23.50
-1.08
24.12
49.34
71.57
89.39
102.72
112.31
119.17
123.94
126.76
127.25
125.06
120.59
114.06
106.46
98.94
92.47
87.47
83.81
80.91
78.10
74.93
71.31
67.52
63.90
60.68
57.81
55.36
52.42
48.47
43.15
36.39
28.42
19.58
10.33
1.08
-7.79
-16.03
-23.31
-29.38
-34.04
-37.18
-38.84
-39.16
-38.43
-37.02
-35.39
-33.82
-32.58
-31.85
-31.71
-32.22
-33.36
-35.09
-37.30
-39.93
-42.66
-45.26
-47.49
-49.12
-50.05
-50.25
-49.81
-48.87
-47.62
-45.92
-43.77
-41.22
-38.47
-35.91
-34.06
-33.57
-35.02
-38.83
-44.54
-51.46
-58.67
-65.27
-70.71
-74.88
-78.22
-81.48
-85.40
-89.68
-93.60
-96.13
-96.14
-92.85
-85.88
-75.12
-60.10
-43.88
-26.62
-7.28
15.80
44.16
78.33
117.49
159.74
202.51
243.54
282.15
318.62
354.16
390.65
430.34
474.90
524.26
575.22
620.95
652.57
661.19
641.50
594.16
526.05
447.82
370.15
300.41
241.24
191.56
148.35
108.85
71.52
35.84
1.43
-32.77
-68.50
-107.51
-150.62
-197.24
-245.04
-290.87
-331.61
-365.34
-391.94
-412.97
-431.10
-449.22
-469.97
-495.02
-524.15
-554.20
-578.72
-589.08
-577.02
-537.78
-472.36
-387.26
-292.26
-196.67
-106.42
-23.16
54.63
129.74
204.55
280.29
356.76
431.96
501.74
560.04
600.26
617.54
610.82
583.40
541.84
493.52
444.41
397.98
355.57
317.29
283.00
252.28
224.16
197.00
168.86
138.48
105.95
72.87
41.55
14.20
-8.23
-26.31
-41.78
-56.74
-72.69
-89.99
-107.82
-124.85
-140.02
-153.22
-165.45
-178.44
-193.87
-212.64
-234.54
-258.44
-282.83
-306.58
-329.46
-352.35
-376.91
-405.23
-439.13
-479.38
-525.01
-573.11
-619.18
-658.21
-686.01
-700.41
-701.87
-693.03
-677.48
-658.16
-636.19
-610.69
-579.66
-541.36
-495.56
-443.91
-389.30
-334.58
-281.58
-230.62
-181.07
-132.17
-84.01
-37.50
6.18
46.46
83.90
119.90
156.06
193.28
231.36
269.14
305.18
338.36
368.33
395.29
419.57
441.44
461.00
478.25
492.89
503.90
508.87
503.95
484.60
447.35
391.84
321.98
245.87
173.99
116.51
80.71
69.03
78.62
102.09
129.63
151.40
159.73
150.46
123.23
81.04
29.34
-24.69
-72.96
-107.58
-122.74
-116.61
-92.69
-59.59
-28.61
-10.33
-11.70
-34.84
-77.44
-134.11
-197.29
-257.72
-305.20
-330.18
-326.26
-292.54
-234.28
-161.18
-83.98
-10.75
55.13
114.59
171.05
228.45
290.10
357.99
432.24
509.99
584.74
646.87
686.09
694.94
671.48
620.03
548.98
467.28
381.29
293.77
205.08
115.50
26.92
-57.32
-133.67
-200.34
-258.20
-310.32
-360.56
-412.41
-468.28
-529.24
-594.95
-663.04
-728.80
-785.68
-826.83
-847.17
-845.04
-822.40
-783.40
-732.28
-671.79
-603.09
-526.92
-444.75
-359.26
-273.45
-189.22
-106.44
-23.26
62.62
152.42
245.10
337.03
422.20
493.42
543.82
568.73
567.41
543.91
506.60
466.34
433.56
415.07
412.03
419.83
429.93
433.02
422.18
394.93
353.32
302.36
247.49
192.75
140.47
92.29
50.78
19.68
2.25
-1.29
4.78
12.86
15.78
10.98
2.33
-2.04
5.07
24.99
51.52
73.86
82.36
73.86
53.30
31.46
20.19
27.92
57.64
107.30
171.84
245.04
320.39
391.17
450.46
491.80
510.25
503.69
473.50
424.01
361.05
290.22
215.49
138.82
60.52
-19.40
-100.27
-180.51
-258.10
-331.43
-400.29
-466.12
-531.37
-597.97
-665.37
-729.25
-781.84
-814.10
-818.67
-792.53
-738.27
-663.73
-580.27
-500.22
-434.18
-388.47
-363.54
-353.72
-349.02
-338.51
-314.14
-273.37
-219.56
-159.69
-101.12
-48.66
-3.56
35.93
73.07
111.44
154.25
203.64
259.63
318.88
374.57
417.81
440.81
440.45
420.58
391.56
366.89
358.15
370.44
400.54
438.52
471.89
490.21
488.29
466.54
429.08
380.99
326.12
266.28
201.90
133.45
63.37
-3.14
-58.61
-95.34
-108.03
-96.16
-64.75
-23.08
18.05
49.77
67.24
69.99
60.42
41.65
15.82
-16.11
-53.65
-95.95
-141.19
-186.61
-228.90
-264.87
-292.59
-312.34
-326.26
-336.79
-344.60
-347.30
-340.65
-321.42
-290.54
-254.57
-223.91
-208.76
-214.63
-240.01
-276.91
-314.10
-341.15
-351.37
-343.05
-318.85
-284.55
-247.22
-213.00
-185.09
-162.89
-142.56
-118.97
-88.10
-48.44
-0.89
52.44
109.54
168.67
227.45
281.98
326.79
356.23
366.54
357.37
331.57
293.61
247.28
194.35
135.09
69.63
-0.57
-72.17
-140.80
-202.47
-254.87
-297.91
-333.69
-365.77
-398.14
-433.70
-472.79
-512.45
-547.03
-570.17
-577.41
-567.94
-544.65
-512.46
-475.85
-437.10
-396.11
-351.60
-302.76
-250.18
-195.67
-141.07
-86.92
-32.56
23.82
83.78
147.55
213.74
279.48
341.65
398.00
448.33
493.92
537.26
580.91
626.91
676.81
731.23
789.17
847.22
899.73
938.44
956.28
949.72
920.45
875.04
821.20
764.02
704.22
640.40
568.19
486.99
399.78
311.99
230.10
157.25
91.87
29.38
-32.03
-96.91
-164.57
-232.68
-298.71
-358.04
-408.26
-449.19
-480.92
-497.35
-499.25
-484.55
-455.19
-416.69
-371.62
-322.65
-271.76
-219.27
-157.46
-88.82
-12.65
68.28
150.37
236.80
330.20
429.12
493.36
554.94
599.55
620.83
615.85
550.87
421.74
256.61
98.36
-24.56
-102.01
-148.48
-173.56
-187.82
-196.02
-195.64
-188.11
-181.60
-187.78
-209.67
-248.28
-293.14
-330.65
-347.95
-333.79
-286.96
-218.27
-146.23
-86.32
-52.30
-46.16
-62.00
-87.71
-108.03
-112.08
-97.55
-70.15
-38.18
-14.24
-1.45
0.83
-3.18
-7.88
-9.26
-7.15
-3.90
-1.31
0.51
3.81
10.94
22.40
34.10
39.31
31.34
6.45
-35.39
-85.40
-136.06
-182.51
-213.28
-224.35
-218.85
-205.30
-192.21
-183.19
-176.18
-166.64
-150.01
-125.79
-98.84
-76.00
-63.11
-62.62
-72.99
-89.48
-109.01
-120.55
-114.65
-87.68
-42.86
9.61
54.95
79.16
74.97
46.15
7.49
-22.13
-27.62
-3.02
46.51
107.82
166.04
204.15
209.74
179.65
119.84
43.54
-32.74
-94.66
-133.95
-149.69
-146.47
-129.98
-103.74
-69.30
-27.45
19.88
69.27
116.89
160.02
197.52
229.30
254.85
271.27
274.24
260.25
229.10
184.60
133.10
80.60
30.81
-15.92
-61.32
-106.56
-150.17
-187.70
-213.33
-222.77
-215.53
-195.11
-167.49
-138.78
-112.92
-91.28
-73.61
-59.32
-48.67
-42.71
-43.29
-51.38
-66.00
-84.28
-102.77
-119.00
-131.87
-141.47
-148.58
-153.40
-155.19
-152.69
-144.32
-128.57
-104.98
-73.85
-36.32
5.98
51.56
99.85
151.13
205.66
261.72
314.18
354.80
374.08
364.80
324.94
258.67
174.41
81.48
-12.77
-103.46
-186.50
-256.58
-306.54
-329.26
-320.75
-282.66
-222.23
-149.72
-74.74
-3.57
61.24
119.77
172.55
219.36
259.37
292.12
318.68
342.15
367.29
399.05
440.44
490.57
543.62
590.02
619.40
624.41
603.65
562.09
508.86
453.49
402.39
357.47
317.05
278.05
238.15
196.69
154.33
112.13
70.66
29.84
-10.73
-51.36
-92.32
-133.73
-176.29
-221.66
-272.43
-331.08
-398.28
-471.22
-543.15
-604.99
-648.21
-667.93
-664.46
-642.63
-609.20
-569.99
-528.14
-484.25
-437.78
-388.60
-337.59
-286.14
-235.20
-184.49
-132.47
-77.04
-16.66
48.50
115.65
179.35
232.63
268.82
283.62
276.37
250.11
210.23
162.69
112.65
63.83
18.96
-19.71
-50.19
-71.18
-82.70
-86.48
-85.63
-83.64
-83.16
-85.11
-88.51
-90.99
-89.96
-83.70
-72.14
-56.83
-40.25
-24.86
-12.19
-2.54
4.83
10.95
16.60
21.91
26.48
29.73
31.28
31.22
30.02
28.34
26.67
25.18
23.69
21.84
19.36
16.20
12.62
9.03
5.83
3.18
0.93
-1.30
-3.96
-7.44
-11.90
-17.31
-23.42
-29.76
-35.60
-40.09
-42.29
-41.52
-37.49
-30.51
-21.37
-11.14
-0.94
8.45
16.54
23.16
28.33
32.07
34.37
35.27
34.89
33.50
31.54
29.45
27.60
26.11
24.86
23.61
22.13
20.26
17.99
15.42
12.68
9.86
6.99
4.00
0.81
-2.70
-6.61
-10.99
-15.85
-21.12
-26.57
-31.65
-35.60
-37.43
-36.29
-31.71
-23.82
-13.41
-1.67
10.07
20.70
29.51
36.20
40.85
43.76
45.31
45.89
45.76
45.09
43.94
42.37
40.46
38.36
36.19
34.08
32.03
29.97
27.85
25.66
23.44
21.26
19.10
16.86
14.37
11.48
8.16
4.53
0.74
-3.12
-7.14
-11.55
-16.52
-21.86
-26.93
-30.72
-32.07
-30.19
-24.88
-16.72
-6.85
3.39
12.79
20.64
26.66
31.00
34.02
36.10
37.50
38.34
38.61
38.25
37.28
35.82
34.07
32.23
30.37
28.46
26.38
24.00
21.36
18.62
16.02
13.72
11.70
9.68
7.33
4.38
0.76
-3.34
-7.64
-11.91
-16.09
-20.16
-24.10
-27.53
-29.82
-30.16
-27.93
-22.97
-15.74
-7.19
1.53
9.39
15.75
20.38
23.37
24.97
25.47
25.07
23.99
22.41
20.60
18.88
17.56
16.79
16.53
16.49
16.23
15.40
13.85
11.66
9.16
6.66
4.35
2.21
0.08
-2.24
-4.83
-7.70
-10.81
-14.14
-17.64
-21.22
-24.54
-27.03
-27.89
-26.43
-22.30
-15.77
-7.65
0.92
8.86
