1674460864.00
64.000000
-0.00
-0.00
-0.00
-0.00
-0.00
-0.00
-0.00
-0.00
-0.00
-0.00
0.00
0.01
0.01
-0.00
-0.03
-0.05
-0.05
0.00
0.13
0.36
0.66
1.01
1.37
1.72
2.06
2.40
2.79
3.24
3.80
4.42
5.06
5.66
6.20
6.68
7.15
7.68
8.31
9.14
10.09
11.04
11.88
12.56
13.14
13.76
14.65
15.96
17.91
20.32
22.90
25.38
27.58
29.57
31.68
34.32
37.81
42.54
48.15
54.10
59.83
64.97
69.58
74.14
79.34
85.71
93.76
103.00
112.62
121.73
129.77
136.75
143.30
150.75
157.77
166.64
177.95
191.79
206.97
220.57
228.25
225.36
208.53
176.87
132.76
80.05
23.07
-34.94
-92.44
-149.16
-205.23
-260.37
-313.74
-363.87
-409.83
-450.91
-486.50
-515.74
-537.23
-549.22
-549.96
-538.37
-514.21
-478.67
-433.88
-382.45
-327.02
-269.84
-212.63
-156.66
-102.95
-52.37
-5.90
35.58
71.43
101.35
125.50
144.38
158.69
169.15
176.37
180.75
182.57
182.07
179.51
175.23
169.65
163.18
156.15
148.81
141.30
133.69
126.02
118.33
110.69
103.16
95.80
88.68
81.83
75.25
68.95
62.95
57.25
51.86
46.78
42.03
37.59
33.45
29.61
26.07
22.81
19.83
17.11
14.67
12.48
10.54
8.83
7.35
6.07
4.97
4.05
3.27
2.62
2.09
1.65
1.30
1.01
0.79
0.61
0.47
0.37
0.28
0.22
0.18
0.14
0.12
0.11
0.11
0.11
0.12
0.14
0.16
0.18
0.21
0.24
0.26
0.29
0.32
0.35
0.37
0.40
0.43
0.47
0.51
0.55
0.61
0.67
0.74
0.83
0.92
1.02
1.14
1.27
1.41
1.57
1.74
1.93
2.13
2.35
2.59
2.86
3.14
3.45
3.78
4.14
4.54
4.96
5.41
5.90
6.42
6.98
7.58
8.23
8.91
9.62
10.37
11.17
12.01
12.94
13.95
15.04
16.19
17.33
18.40
19.33
20.03
20.44
20.54
20.25
19.53
18.31
16.53
14.18
11.31
8.03
4.62
1.41
-1.28
-3.18
-4.20
-4.37
-3.92
-3.12
-2.24
-1.50
-0.98
-0.77
-0.94
-1.69
-3.35
-6.18
-10.36
-15.77
-21.92
-28.04
-33.41
-37.49
-40.25
-42.16
-43.99
-46.44
-49.83
-53.82
-57.53
-60.00
-60.64
-59.55
-57.69
-56.50
-57.32
-60.73
-66.19
-72.24
-77.04
-79.08
-77.78
-73.77
-68.84
-65.65
-66.83
-74.01
-86.46
-100.62
-110.38
-108.99
-91.64
-57.89
-12.42
36.08
77.66
104.13
111.11
98.89
71.60
35.42
-3.45
-40.07
-71.36
-95.95
-112.26
-119.83
-119.00
-110.19
-93.43
-68.59
-35.82
3.74
47.50
91.62
131.70
164.45
189.10
207.76
224.46
243.45
267.43
296.72
329.87
364.85
400.56
437.09
474.83
512.78
547.75
574.67
588.39
585.82
567.05
535.13
494.29
447.74
396.44
339.30
274.66
202.18
123.81
43.22
-35.54
-109.72
-178.77
-243.90
-306.86
-368.38
-427.43
-481.41
-527.20
-562.35
-585.88
-598.27
-600.90
-595.18
-582.22
-562.74
-537.62
-508.28
-476.92
-446.42
-419.93
-400.32
-389.37
-386.81
-389.71
-392.55
-388.49
-371.35
-337.69
-287.70
-224.52
-152.54
-75.66
3.25
81.77
156.82
224.14
279.08
318.16
340.41
347.51
342.76
329.59
310.55
287.31
261.35
234.43
208.68
186.16
168.29
155.65
148.11
144.88
144.52
144.66
142.23
134.20
118.85
96.68
70.54
44.49
22.04
4.65
-8.64
-20.35
-33.00
-47.75
-63.91
-79.49
-92.32
-101.10
-105.99
-108.41
-110.34
-113.46
-118.56
-125.12
-131.32
-134.40
-131.35
-119.64
-98.00
-66.91
-28.61
13.36
54.89
92.13
121.99
142.51
152.94
153.68
146.25
133.01
116.76
100.10
84.92
72.06
61.46
52.57
44.82
38.00
32.18
27.55
24.09
21.50
19.22
16.66
13.34
9.06
3.88
-1.90
-7.75
-13.07
-17.27
-20.01
-21.24
-21.33
-20.92
-20.75
-21.46
-23.35
-26.25
-29.60
-32.63
-34.58
-35.00
-33.87
-31.58
-28.84
-26.38
-24.80
-24.46
-25.45
-27.71
-31.08
-35.35
-40.29
-45.64
-51.06
-56.16
-60.59
-64.08
-66.62
-68.57
-70.60
-73.53
-77.87
-83.53
-89.61
-94.63
-97.03
-95.80
-90.85
-83.13
-74.25
-65.95
-59.53
-55.41
-53.02
-50.91
-47.21
-40.23
-29.23
-14.85
0.95
15.38
25.83
30.73
29.99
24.73
16.76
7.76
-1.02
-8.90
-15.49
-20.69
-24.77
-28.46
-32.92
-39.18
-47.45
-56.54
-63.83
-66.05
-60.31
-45.23
-21.50
8.30
40.49
71.40
98.31
119.98
136.61
149.46
160.21
170.41
181.11
192.72
205.05
217.39
228.68
237.65
243.03
243.76
239.15
228.81
212.66
190.90
164.18
133.81
101.90
71.21
44.54
24.06
10.80
4.48
3.87
7.35
13.29
20.23
26.82
31.65
33.37
30.84
23.44
11.25
-4.92
-23.74
-43.64
-63.08
-80.75
-95.71
-107.50
-116.14
-122.16
-126.47
-130.06
-133.77
-137.99
-142.58
-146.91
-150.12
-151.34
-149.90
-145.49
-138.19
-128.50
-117.28
-105.62
-94.70
-85.36
-77.92
-72.11
-67.19
-62.27
-56.73
-50.42
-43.69
-37.22
-31.66
-27.40
-24.28
-21.65
-18.49
-13.76
-6.70
2.93
14.89
28.65
43.67
59.57
76.08
92.97
109.97
126.83
143.55
160.46
178.01
196.32
214.74
231.68
244.90
252.26
252.39
245.06
230.96
211.19
186.78
158.56
127.46
94.88
62.87
33.76
9.57
-8.70
-21.45
-30.29
-37.49
-45.24
-55.12
-67.80
-83.09
-100.07
-117.41
-133.48
-146.54
-154.99
-157.63
-153.98
-144.52
-130.60
-114.11
-96.92
-80.30
-64.74
-50.02
-35.74
-21.87
-9.04
1.58
8.76
11.74
10.61
6.25
-0.04
-7.03
-13.90
-20.21
-25.78
-30.37
-33.64
-35.27
-35.24
-33.92
-31.99
-30.18
-28.94
-28.27
-27.89
-27.45
-26.79
-26.03
-25.42
-25.11
-24.95
-24.58
-23.53
-21.50
-18.49
-14.85
-11.10
-7.87
-5.63
-4.66
-5.00
-6.36
-8.15
-9.54
-9.62
-7.61
-3.12
3.67
12.08
21.11
29.72
37.06
42.65
46.30
48.06
48.08
46.59
43.90
40.44
36.65
32.87
29.26
25.73
22.09
18.21
14.21
10.47
7.47
5.51
4.52
3.95
3.01
0.97
-2.46
-6.91
-11.41
-14.72
-15.82
-14.19
-10.03
-4.11
2.52
8.90
14.34
18.52
21.38
23.07
23.94
24.51
25.44
27.27
30.21
34.14
38.84
44.47
51.95
62.89
79.02
101.21
128.79
159.45
189.44
214.52
230.68
235.05
226.51
205.80
175.43
139.23
101.56
65.96
34.27
5.92
-21.45
-50.96
-85.20
-125.25
-169.56
-213.72
-251.20
-274.83
-279.34
-262.84
-227.65
-179.74
-127.30
-77.46
-34.31
0.99
29.22
50.39
63.85
69.21
67.07
58.60
47.03
36.50
29.64
26.88
24.28
17.33
4.00
-14.59
-36.22
-56.45
-70.24
-74.20
-66.06
-48.51
-25.77
-2.10
16.87
22.89
10.49
-20.06
-62.74
-106.14
-142.69
-169.35
-188.65
-188.57
-168.31
-137.61
-108.24
-100.75
-108.77
-128.19
-161.62
-203.44
-252.43
-307.29
-361.24
-402.96
-421.62
-409.73
-370.48
-312.89
-247.02
-181.86
-123.56
-72.76
-26.03
20.68
70.73
121.89
169.70
209.90
238.51
252.85
253.58
244.54
230.99
218.09
207.23
197.74
188.92
180.57
173.83
170.76
172.57
177.77
182.71
182.28
173.46
157.25
137.84
120.43
108.65
102.87
100.25
96.82
89.25
76.55
60.23
42.88
26.83
13.19
1.76
-8.24
-17.21
-24.71
-29.65
-30.89
-28.01
-21.74
-13.79
-6.37
-1.51
-0.61
-4.11
-11.47
-21.30
-31.76
-40.89
-47.18
-49.95
-49.43
-46.47
-41.97
-36.40
-29.69
-21.70
-12.71
-3.75
3.56
7.83
8.74
7.37
5.91
6.67
10.95
18.40
27.40
35.67
41.33
43.36
41.61
36.56
28.91
19.33
8.46
-2.69
-12.87
-20.47
-23.68
-20.67
-9.71
10.60
40.94
80.90
128.66
180.19
228.95
266.70
285.54
280.51
251.45
203.11
143.67
82.49
27.22
-17.92
-52.12
-76.45
-92.21
-98.52
-95.00
-83.89
-69.11
-54.63
-43.40
-37.02
-36.03
-40.05
-48.23
-60.03
-75.29
-93.45
-113.62
-135.24
-158.30
-183.48
-212.24
-247.34
-288.10
-335.42
-389.24
-447.02
-503.11
-549.25
-576.88
-580.18
-558.53
-516.82
-464.11
-409.44
-359.07
-315.58
-278.67
-247.06
-219.86
-196.84
-177.82
-162.27
-148.74
-135.49
-121.58
-107.43
-94.41
-84.11
-77.14
-72.61
-68.62
-62.68
-52.86
-38.49
-20.19
0.81
23.67
48.75
77.69
112.56
154.89
204.63
259.84
317.27
373.48
426.11
474.45
519.33
562.21
604.50
646.99
689.58
731.02
768.70
798.50
815.28
814.36
793.22
753.09
698.83
637.33
574.84
514.77
457.25
400.53
343.49
287.46
236.34
194.71
165.24
146.73
134.37
121.81
104.30
80.93
54.90
31.63
15.76
8.75
8.32
9.87
9.01
3.68
-5.00
-13.74
-18.99
-18.86
-13.97
-6.93
-0.92
1.81
0.81
-2.62
-6.39
-8.86
-9.78
-10.55
-13.68
-21.59
-35.49
-54.75
-77.11
-99.69
-120.19
-137.80
-153.30
-168.45
-184.97
-203.75
-224.62
-246.72
-269.14
-291.39
-313.24
-334.29
-353.50
-368.98
-378.35
-379.39
-370.90
-353.24
-328.58
-300.44
-272.77
-248.68
-229.51
-214.62
-202.24
-190.89
-180.56
-172.89
-170.17
-173.72
-182.52
-193.24
-201.32
-202.56
-194.43
-176.24
-148.70
-113.39
-72.62
-29.67
11.14
45.14
68.56
79.90
80.36
73.22
62.23
50.05
37.34
23.19
6.46
-12.73
-32.08
-47.18
-52.68
-43.97
-18.91
20.80
69.68
119.69
162.64
192.65
207.60
208.67
198.44
178.69
149.62
110.79
63.49
12.61
-33.53
-65.45
-75.80
-61.82
-25.96
25.30
83.22
138.38
181.87
206.47
208.09
186.78
146.94
96.05
42.31
-7.41
-48.72
-79.51
-99.09
-107.60
-106.07
-96.84
-83.42
-69.47
-57.27
-46.73
-35.77
-22.01
-4.59
14.57
31.20
40.44
38.90
26.19
4.93
-20.44
-45.60
-67.88
-86.96
-104.33
-122.34
-143.30
-168.90
-199.90
-235.84
-274.71
-313.08
-346.36
-369.78
-379.74
-375.07
-357.73
-332.23
-303.88
-276.64
-251.33
-225.51
-194.95
-156.22
-108.90
-56.11
-3.36
43.91
82.37
111.74
134.24
152.92
170.15
186.96
203.21
217.97
230.02
237.86
239.81
234.21
219.98
197.42
168.68
137.54
108.30
84.20
65.78
50.33
32.51
6.38
-32.08
-83.07
-142.56
-203.40
-257.31
-296.88
-316.98
-315.44
-293.04
-253.38
-202.34
-147.28
-95.73
-53.84
-25.07
-9.66
-5.00
-7.04
-11.79
-16.56
-20.49
-24.23
-29.03
-35.78
-44.45
-54.02
-63.08
-70.50
-76.01
-80.34
-84.53
-89.07
-93.14
-94.27
-88.63
-72.22
-41.72
4.82
67.45
144.15
230.49
319.57
402.79
471.83
521.30
550.72
564.31
568.46
568.05
563.71
551.78
527.16
486.92
432.70
370.13
306.12
245.47
189.32
135.82
82.45
27.87
-27.47
-81.84
-133.19
-179.81
-220.62
-255.07
-283.20
-305.37
-321.48
-330.36
-329.30
-314.68
-283.49
-235.39
-174.05
-107.07
-43.97
6.55
39.47
54.93
57.91
56.22
57.66
67.59
87.67
115.94
148.46
181.10
210.37
233.42
248.10
253.58
251.01
244.07
237.96
237.08
242.54
250.69
254.32
246.35
223.80
189.38
149.99
112.98
82.72
59.74
41.52
25.21
10.02
-2.45
-9.93
-11.64
-9.32
-6.44
-5.27
-7.26
-12.71
-20.89
-30.32
-39.53
-48.18
-57.75
-71.47
-90.20
-114.49
-143.37
-173.09
-196.98
-208.63
-205.64
-191.33
-172.78
-152.71
-132.18
-110.71
-86.67
-57.25
-20.01
25.97
79.99
140.17
208.51
282.30
352.64
407.66
438.79
443.53
425.32
391.36
317.46
202.94
70.70
-47.63
-134.35
-190.75
-228.73
-260.79
-294.45
-330.33
-359.14
-373.43
-372.42
-363.65
-353.22
-344.44
-337.59
-330.54
-319.16
-295.42
-255.24
-200.72
-138.58
-75.85
-17.62
34.08
76.10
107.16
129.33
143.83
149.92
146.10
132.65
112.63
90.61
71.39
58.83
54.34
56.06
60.44
64.65
68.28
73.27
81.34
93.55
110.13
128.70
145.38
156.22
158.09
148.96
128.57
96.69
54.83
6.49
-46.03
-100.85
-155.53
-206.91
-251.83
-286.83
-311.42
-326.14
-318.85
-283.43
-224.34
-155.42
-91.65
-49.16
-26.28
-19.87
-26.43
-41.76
-58.68
-70.17
-69.51
-52.26
-18.15
30.24
87.09
147.23
207.14
261.87
304.81
329.55
332.29
313.31
278.15
233.85
187.46
143.96
103.92
64.95
24.83
-16.31
-56.71
-94.35
-129.98
-167.34
-211.20
-266.43
-335.58
-416.14
-498.81
-570.87
-620.38
-641.09
-634.99
-608.40
-570.47
-529.93
-491.61
-453.82
-412.59
-365.42
-313.80
-264.46
-220.75
-183.58
-152.16
-123.68
-91.94
-52.34
-4.47
47.27
92.94
129.49
157.80
180.34
201.76
230.79
274.45
334.76
407.81
481.86
552.96
620.71
685.52
716.02
687.67
597.41
468.76
365.86
296.14
255.07
238.48
229.33
220.56
212.09
204.86
198.02
188.05
166.25
132.99
92.16
47.43
3.40
-33.53
-58.38
-69.57
-69.70
-67.51
-66.40
-67.59
-71.87
-77.89
-82.01
-80.72
-72.52
-58.94
-45.84
-35.99
-30.72
-30.83
-35.43
-42.28
-48.84
-53.24
-54.88
-55.31
-54.79
-53.37
-51.37
-48.77
-45.50
-41.61
-37.47
-33.81
-31.76
-31.58
-32.99
-35.55
-38.69
-42.11
-45.60
-48.95
-51.75
-53.33
-52.99
-50.24
-45.10
-38.12
-30.23
-22.38
-15.28
-9.26
-4.38
-0.57
2.29
4.43
6.37
8.92
12.99
19.18
27.32
36.46
45.10
51.62
54.74
53.67
48.11
38.32
25.27
10.91
-1.96
-10.21
-11.28
-4.08
10.73
31.05
54.26
77.98
100.40
120.23
136.42
148.25
155.83
160.60
165.49
174.06
188.94
210.25
234.76
256.65
269.41
268.32
252.15
223.36
186.90
148.17
111.28
78.42
50.05
25.75
4.75
-13.74
-30.97
-48.04
-65.28
-82.06
-97.02
-108.71
-116.24
-119.58
-119.75
-118.63
-117.68
-117.31
-116.75
-114.73
-110.16
-102.45
-91.51
-77.86
-63.47
-50.10
-38.63
-28.81
-19.69
-9.93
2.29
19.22
42.41
69.04
95.05
116.73
131.51
137.50
133.58
120.26
100.56
77.86
49.23
12.47
-31.17
-76.64
-118.43
-153.08
-179.10
-195.37
-203.44
-215.57
-241.65
-283.69
-335.47
-388.53
-437.24
-479.17
-512.48
-539.37
-575.53
-633.05
-713.70
-808.91
-908.31
-1006.41
-1102.07
-1193.32
-1196.31
-1061.08
-798.32
-473.45
-155.10
117.03
328.38
466.92
552.93
600.28
607.19
574.68
512.76
438.70
370.58
317.65
280.70
257.42
241.17
218.22
181.71
135.28
90.55
58.69
44.10
45.07
58.11
76.57
89.43
90.14
79.94
67.28
62.87
74.53
105.33
154.27
214.66
275.28
326.82
365.27
392.53
413.66
433.31
454.30
477.23
499.38
515.27
519.02
505.74
472.56
419.14
348.12
265.82
181.67
105.67
45.62
4.50
-20.24
-34.90
-46.12
-58.12
-71.73
-85.54
-98.01
-108.83
-118.66
-127.72
-134.86
-137.73
-134.46
-125.22
-112.72
-100.88
-92.77
-89.01
-87.55
-85.24
-79.96
-72.43
-66.43
-67.61
-81.35
-110.64
-154.89
-209.91
-269.15
-325.24
-371.52
-402.82
-415.78
-408.80
-381.98
-337.22
-278.35
-211.03
-142.03
-78.13
-24.80
14.86
40.62
54.69
60.76
62.69
63.44
64.54
65.78
65.84
63.14
56.98
48.77
42.57
44.43
60.33
93.95
144.91
208.74
278.26
345.65
404.10
448.54
475.40
482.36
468.43
434.42
383.35
320.27
251.28
181.98
116.52
56.85
2.86
-47.20
-96.18
-147.57
-204.87
-270.54
-344.45
-422.70
-497.58
-558.88
-597.12
-606.86
-588.60
-548.46
-495.40
-437.58
-379.76
-322.79
-265.17
-205.32
-143.54
-82.54
-27.07
17.36
45.69
54.67
43.83
15.90
-23.20
-66.18
-105.67
-135.57
-151.00
-148.22
-124.30
-77.64
-8.88
77.79
173.89
267.62
346.07
398.54
418.52
404.69
360.90
295.21
218.86
143.59
79.16
31.15
1.26
-12.39
-13.55
-5.97
8.15
29.42
58.48
94.08
131.65
166.95
196.82
219.81
235.73
245.45
252.52
259.00
264.18
263.11
254.05
237.92
218.08
198.37
182.10
174.54
176.55
183.66
185.44
178.61
166.23
155.97
154.83
166.29
193.51
232.61
273.53
300.26
307.23
296.92
276.63
252.56
195.58
93.51
-42.30
-154.55
-230.72
-271.05
-286.78
-284.39
-272.12
-258.08
-241.91
-219.83
-187.27
-145.69
-93.24
-31.17
34.52
92.76
132.45
150.68
148.84
130.14
94.09
44.11
-16.13
-82.96
-152.94
-220.12
-273.10
-300.23
-294.03
-255.85
-190.33
-105.46
-10.55
84.90
172.78
247.90
305.83
342.43
353.78
340.36
306.60
259.76
207.29
155.09
106.93
63.88
25.11
-11.24
-46.06
-79.33
-110.46
-138.74
-163.11
-181.49
-190.43
-185.29
-161.70
-117.53
-54.68
20.38
97.80
166.86
218.78
248.74
256.29
244.36
217.39
179.71
134.73
84.80
31.77
-22.76
-77.24
-130.26
-180.55
-226.74
-267.18
-299.95
-323.27
-336.19
-339.03
-333.48
-322.08
-307.51
-291.97
-277.08
-263.97
-253.47
-245.92
-240.65
-235.89
-228.86
-216.76
-197.88
-172.70
-144.10
-117.08
-97.51
-90.63
-98.92
-120.55
-149.10
-175.43
-190.79
-190.09
-173.48
-145.59
-113.15
-82.36
-57.57
-41.40
-35.21
-39.18
-51.36
-66.91
-78.74
-79.82
-66.18
-38.84
-3.27
33.30
65.13
89.80
107.87
121.30
131.73
139.68
144.70
146.19
144.03
138.64
130.81
121.34
110.88
99.87
88.59
77.23
65.88
54.49
42.83
30.45
16.85
1.67
-14.97
-32.24
-48.63
-62.28
-71.58
-75.79
-75.34
-71.65
-66.48
-61.27
-56.61
-52.28
-47.69
-42.45
-36.71
-30.93
-25.32
-19.29
-11.43
-0.18
15.25
34.17
54.44
73.19
88.00
97.65
102.28
102.94
100.75
96.50
90.58
83.39
75.75
69.05
64.74
63.80
66.02
70.00
73.43
73.97
70.09
61.50
49.02
34.07
17.87
1.06
-16.29
-34.29
-52.58
-70.16
-85.58
-97.71
-106.34
-112.38
-117.28
-122.04
-126.46
-129.19
-128.81
-125.02
-119.48
-115.11
-114.65
-119.03
-127.07
-136.59
-146.42
-157.29
-171.05
-188.33
-206.39
-219.02
-218.74
-200.52
-164.55
-116.53
-65.43
-20.02
13.82
34.27
43.07
44.48
44.20
48.73
64.68
97.92
152.45
229.07
324.42
430.76
537.10
631.33
703.19
746.90
762.46
754.61
730.46
696.16
654.81
606.39
549.01
480.88
401.51
312.18
216.40
120.66
34.73
-29.50
-61.48
-56.50
-18.96
38.11
97.24
143.17
167.98
172.56
163.66
149.02
133.28
117.16
99.44
79.79
60.29
44.54
35.19
31.80
30.58
25.75
12.37
-11.61
-44.81
-83.43
-123.43
-162.63
-201.65
-243.40
-291.65
-349.35
-417.70
-495.67
-580.03
-665.35
-744.25
-808.11
-848.89
-861.55
-846.18
-808.43
-757.85
-704.47
-655.49
-613.53
-577.24
-543.56
-510.04
-476.04
-442.12
-408.76
-375.19
-339.53
-299.82
-255.12
-206.13
-154.80
-103.11
-51.92
-0.60
52.28
107.79
165.18
221.23
270.67
307.90
329.03
333.54
324.61
307.97
289.56
273.25
259.87
247.98
235.72
222.49
209.37
197.95
188.58
179.47
167.28
149.00
123.87
94.20
64.32
38.50
19.07
5.69
-4.01
-13.07
-23.76
-36.91
-51.93
-67.15
-80.44
-89.71
-93.74
-92.69
-88.22
-82.87
-78.55
-75.08
-69.60
-57.40
-34.24
1.19
45.89
93.08
134.64
164.40
180.63
186.65
189.20
195.58
210.86
236.50
270.88
310.75
352.68
393.89
432.06
464.93
490.13
505.61
510.18
504.04
488.40
464.51
432.81
393.17
346.39
295.85
247.74
208.91
183.98
172.46
168.30
162.32
146.62
118.37
80.76
40.65
3.72
-27.23
-52.40
-72.94
-89.19
-100.23
-104.91
-103.69
-99.93
-101.56
-116.01
-147.10
-192.97
-247.40
-302.42
-350.97
-388.44
-413.78
-433.11
-454.41
-484.58
-525.62
-574.38
-623.77
-664.65
-688.35
-689.16
-669.60
-634.40
-588.54
-535.03
-477.32
-420.82
-371.19
-330.92
-270.56
-170.60
-27.99
138.54
301.08
434.92
525.00
568.03
571.43
549.15
511.77
471.64
429.91
388.68
351.12
320.22
298.22
286.59
285.05
288.13
289.37
282.88
266.17
240.06
207.06
170.73
134.68
101.50
69.54
35.62
-3.70
-49.10
-99.60
-153.70
-209.95
-266.97
-323.09
-376.27
-422.12
-454.36
-465.78
-452.05
-413.75
-356.22
-287.64
-216.41
-149.14
-89.23
-36.81
10.70
56.42
103.63
155.41
214.48
282.13
356.92
433.50
502.41
552.05
571.64
557.77
517.71
467.10
422.73
394.35
380.55
370.49
350.60
309.38
245.34
167.42
89.11
20.61
-35.52
-82.79
-126.62
-170.35
-218.17
-269.87
-320.98
-365.52
-400.22
-426.17
-446.41
-463.41
-477.29
-492.33
-510.79
-531.69
-552.22
-571.14
-589.57
-608.27
-626.01
-601.70
-513.01
-369.91
-208.18
-61.48
54.36
138.02
194.64
230.00
249.02
249.93
232.94
204.65
177.06
161.57
163.87
182.92
211.81
241.24
258.28
255.20
232.90
199.19
162.95
126.01
93.01
65.81
44.61
26.15
8.32
-8.40
-21.52
-29.87
-33.69
-33.96
-31.60
-26.93
-21.85
-17.88
-15.15
-12.28
-8.09
-0.98
11.15
27.18
46.47
66.70
85.08
99.86
111.00
118.62
124.53
130.43
138.75
150.22
162.86
173.35
179.11
179.57
174.37
166.14
143.57
103.53
52.52
1.99
-40.66
-75.83
-104.37
-134.69
-167.77
-198.58
-216.60
-212.55
-182.17
-127.25
-54.79
27.00
102.10
157.27
185.74
192.62
188.17
180.01
170.13
157.03
148.83
141.77
136.16
133.02
134.91
143.68
160.70
187.47
217.69
249.22
277.40
298.51
305.11
290.74
252.34
191.93
115.86
32.42
-49.35
-124.75
-190.36
-248.05
-299.61
-344.85
-382.03
-409.65
-427.91
-437.58
-441.39
-420.92
-367.64
-287.79
-198.53
-115.73
-46.98
6.87
48.54
80.46
105.47
123.15
133.74
139.43
143.02
146.78
151.70
158.22
165.12
171.81
175.72
175.23
171.09
163.67
154.10
144.34
137.14
133.82
134.94
138.90
143.19
146.17
142.70
128.97
103.86
74.82
46.47
21.10
-1.33
-23.49
-47.63
-81.90
-131.03
-192.90
-259.40
-322.98
-379.02
-425.44
-464.67
-499.46
-541.08
-597.45
-668.78
-748.47
-829.77
-907.67
-976.41
-1032.26
-1015.24
-897.55
-701.44
-484.18
-295.04
-155.05
-70.52
-16.94
22.88
59.33
88.81
107.94
118.21
127.30
143.48
171.79
214.98
269.98
332.64
391.39
437.08
467.41
486.86
501.72
516.74
535.74
559.18
587.58
617.42
645.95
672.12
695.02
710.96
713.80
699.28
666.91
623.07
576.66
536.97
510.08
496.38
490.41
483.55
468.63
441.54
402.58
354.48
301.89
250.74
207.40
177.07
161.88
160.03
165.72
171.20
169.33
155.60
128.91
90.97
44.58
-7.56
-63.38
-121.14
-178.96
-234.84
-287.18
-335.45
-380.33
-423.59
-467.20
-512.71
-560.59
-609.85
-657.78
-700.14
-731.79
-747.96
-745.79
-725.38
-689.88
-644.38
-594.30
-543.91
-495.87
-451.32
-410.53
-373.20
-338.45
-304.83
-270.64
-234.69
-197.08
-159.40
-124.15
-93.85
-69.99
-52.73
-41.19
-33.89
-29.03
-24.50
-17.91
-7.04
9.33
30.70
54.76
78.03
97.13
109.98
116.34
117.52
115.68
112.93
110.75
109.85
110.22
111.29
112.16
111.80
109.50
105.09
99.06
92.42
86.12
80.63
75.95
71.85
68.24
65.34
63.63
63.43
64.62
66.58
68.46
69.99
71.64
74.44
79.23
86.01
93.68
100.45
104.35
103.77
98.49
89.68
79.35
69.63
62.11
57.14
54.13
51.06
44.90
34.31
20.62
7.51
-0.31
1.03
12.63
33.13
58.13
80.96
97.63
108.20
115.89
125.90
143.36
171.24
210.40
256.83
300.53
331.73
343.36
332.39
301.52
258.95
215.74
183.77
169.05
167.94
173.87
180.45
182.74
179.01
170.37
146.62
106.66
70.09
40.37
12.54
-14.24
-40.07
-65.66
-92.93
-124.69
-161.73
-205.03
-257.34
-317.30
-379.26
-435.80
-478.95
-501.99
-501.41
-476.29
-430.08
-370.39
-302.60
-229.36
-152.99
-77.80
-11.26
36.56
57.14
46.41
7.03
-48.81
-103.16
-139.86
-151.11
-140.60
-121.44
-108.77
-113.15
-136.56
-171.96
-208.41
-237.38
-255.83
-265.11
-267.62
-263.89
-252.76
-234.12
-211.16
-190.75
-181.16
-188.08
-211.50
-245.15
-279.15
-303.40
-310.69
-298.22
-267.49
-223.51
-173.08
-122.80
-77.39
-38.17
-2.42
35.76
83.07
143.58
216.14
293.11
362.07
409.87
426.99
410.15
362.13
289.51
200.21
102.44
4.92
-82.57
-150.00
-189.51
-198.14
-179.53
-142.71
-98.48
-55.49
-17.79
14.96
45.25
75.30
105.58
134.84
161.34
183.98
202.76
218.72
233.67
249.78
268.90
291.84
317.55
342.77
362.61
372.05
367.80
349.71
321.04
287.30
254.51
227.51
209.03
199.69
198.40
202.99
210.41
217.16
219.80
215.62
203.47
183.97
159.22
132.01
105.07
80.65
60.36
45.49
37.09
35.85
41.77
53.71
69.49
86.20
101.06
112.31
119.60
124.04
127.60
132.35
139.54
148.97
158.90
166.75
170.20
168.71
164.49
162.36
167.95
185.04
213.37
247.73
279.53
299.94
303.24
288.42
258.87
220.53
179.74
141.43
108.76
83.12
63.98
49.17
35.36
19.14
-1.58
-26.84
-54.99
-83.42
-109.71
-132.54
-151.73
-167.59
-179.88
-187.08
-186.43
-175.11
-150.82
-113.18
-64.88
-12.18
36.64
73.73
94.31
98.05
87.08
66.14
40.65
15.13
-7.78
-27.06
-42.72
-55.65
-68.00
-85.92
-114.40
-155.03
-205.15
-259.46
-311.89
-357.23
-392.43
-417.33
-438.64
-462.08
-490.09
-522.32
-557.95
-595.89
-633.25
-664.37
-681.88
-684.88
-672.71
-644.98
-602.85
-550.90
-495.94
-444.13
-398.83
-327.21
-219.61
-91.30
29.46
124.10
190.96
238.38
276.39
310.60
343.89
367.43
372.92
357.87
326.53
286.56
245.96
210.48
188.13
183.42
189.44
196.57
198.72
195.75
190.50
185.88
183.01
181.20
178.09
167.64
147.40
120.43
94.45
77.82
76.38
91.89
121.96
160.71
199.89
233.06
255.99
267.42
267.08
254.51
229.22
192.20
146.76
98.25
53.72
19.35
-2.06
-12.37
-16.78
-20.85
-27.75
-37.54
-48.40
-58.73
-68.84
-81.03
-98.21
-121.60
-149.21
-176.02
-196.00
-204.63
-200.67
-186.34
-165.94
-144.18
-124.64
-109.33
-98.85
-92.98
-90.93
-91.57
-93.45
-95.03
-95.22
-93.60
-90.17
-84.75
-76.55
-64.42
-47.90
-28.21
-8.79
5.42
9.85
2.32
-15.87
-40.44
-66.02
-88.52
-106.48
-120.90
-133.51
-145.03
-154.10
-157.93
-154.05
-141.95
-124.03
-104.74
-88.68
-78.69
-74.56
-73.56
-72.08
-67.72
-60.62
-53.25
-48.92
-49.67
-54.95
-61.69
-65.73
-63.83
-55.18
-41.44
-25.97
-12.23
-2.39
3.28
6.04
7.68
9.54
12.09
15.10
17.71
19.00
18.51
16.42
13.35
9.95
6.67
3.96
2.71
3.54
6.37
9.98
12.06
9.70
0.52
-15.97
-37.45
-58.17
-72.45
-76.95
-71.37
-57.72
-39.20
-18.98
0.75
19.26
39.37
62.67
88.27
113.80
136.92
155.68
168.21
173.02
169.67
163.25
157.67
154.91
156.27
163.84
179.67
203.98
234.63
268.09
305.98
346.42
383.58
409.60
417.61
402.33
360.41
291.40
172.24
9.90
-164.81
-318.12
-434.43
-514.37
-562.74
-582.37
-575.32
-552.97
-516.14
-471.69
-430.17
-398.88
-376.97
-357.53
-333.15
-299.87
-259.95
-213.83
-164.72
-115.41
-66.05
-14.10
42.50
102.36
160.57
210.90
252.38
285.06
309.99
328.42
341.52
349.53
351.88
348.30
339.88
330.71
323.34
317.18
308.74
293.91
270.46
239.71
206.36
176.43
155.35
144.65
141.93
142.82
143.46
141.74
137.03
129.50
119.57
108.15
96.64
86.85
80.94
80.78
87.30
99.64
115.27
130.62
142.05
147.09
144.34
135.41
125.23
120.64
127.11
145.57
171.10
194.60
206.71
200.15
174.89
138.90
104.17
79.88
67.86
62.97
57.60
46.65
26.76
-0.61
-30.09
-55.63
-74.82
-89.79
-104.66
-122.22
-142.63
-168.90
-203.76
-247.96
-299.94
-358.25
-422.98
-494.62
-572.75
-625.39
-626.71
-574.18
-490.02
-400.39
-320.78
-256.20
-206.06
-167.77
-137.81
-116.92
-105.73
-102.33
-101.48
-98.39
-90.95
-83.92
-77.89
-73.95
-77.06
-91.38
-116.90
-147.48
-174.08
-188.39
-177.62
-143.49
-95.63
-49.06
-16.72
-4.24
-7.21
-16.30
-22.91
-22.25
-15.43
-6.05
1.37
4.50
4.26
5.16
11.62
26.07
48.99
78.78
114.07
153.05
193.77
225.41
239.74
231.14
199.49
151.47
98.24
51.97
20.38
4.27
-1.85
-3.35
-4.27
-5.56
-6.04
-4.49
-0.73
3.61
7.02
8.69
12.40
21.71
38.00
59.41
81.96
101.61
115.01
122.03
124.39
129.53
143.77
169.92
206.46
249.54
295.29
339.76
382.08
422.21
465.63
516.07
573.22
632.17
686.28
730.10
759.30
774.87
748.97
671.49
552.83
418.59
291.73
181.79
96.10
21.29
-50.39
-120.25
-181.23
-228.27
-258.42
-274.62
-283.35
-291.05
-303.97
-324.33
-353.08
-385.84
-416.80
-439.50
-448.19
-438.31
-408.16
-362.00
-307.83
-257.01
-218.20
-196.38
-191.55
-199.48
-212.56
-221.82
-220.41
-204.12
-173.64
-133.14
-89.75
-51.10
-23.12
-8.07
-4.58
-9.92
-21.13
-36.30
-54.07
-72.96
-90.79
-105.15
-114.10
-116.80
-113.64
-105.32
-92.12
-73.55
-48.86
-18.06
16.85
51.67
80.62
97.89
99.63
85.34
58.32
24.74
-8.46
-35.71
-54.36
-64.72
-68.97
-69.51
-67.80
-64.05
-58.05
-49.74
-39.88
-29.88
-21.45
-15.97
-14.20
-15.99
-20.27
-25.37
-29.25
-30.36
-28.21
-23.69
-18.49
-14.19
-11.43
-9.70
-8.05
-5.52
-1.83
2.35
5.40
5.38
0.59
-9.81
-25.19
-44.02
-63.21
-79.05
-88.50
-90.59
-86.94
-81.29
-78.27
-81.82
-95.04
-117.36
-145.30
-174.00
-198.98
-217.20
-227.22
-229.07
-224.17
-217.03
-211.14
-209.17
-213.61
-227.23
-252.39
-289.13
-333.55
-377.60
-413.46
-431.25
-422.90
-385.18
-320.80
-236.40
-139.00
-33.25
91.25
230.27
368.75
486.93
571.09
618.63
635.55
631.70
617.02
606.36
599.50
593.42
584.49
569.44
545.74
512.64
471.90
427.52
378.72
325.47
269.63
213.47
159.26
109.24
65.69
30.88
6.04
-9.64
-20.67
-32.01
-48.06
-71.39
-102.40
-139.35
-178.55
-214.96
-243.15
-258.71
-258.76
-243.66
-217.85
-189.13
-165.95
-153.83
-152.83
-157.63
-160.59
-155.89
-142.59
-124.86
-109.16
-100.24
-98.61
-100.95
-103.12
-103.26
-103.02
-106.35
-116.46
-133.33
-153.07
-169.26
-175.21
-165.78
-138.66
-95.17
-40.56
16.25
64.13
92.93
97.29
79.57
50.06
23.63
14.06
28.48
64.76
112.86
159.45
193.40
209.78
210.78
203.61
196.84
196.91
206.21
222.99
242.57
259.38
268.35
265.87
250.15
221.26
181.00
132.54
80.14
28.32
-18.98
-59.29
-92.51
-121.39
-150.93
-186.65
-232.01
-285.80
-341.27
-387.68
-414.01
-413.21
-384.83
-334.96
-273.14
-208.38
-145.98
-86.58
-27.56
34.38
100.70
169.73
236.79
295.73
341.03
369.82
382.83
383.86
377.90
368.64
357.20
342.16
321.40
294.13
262.02
228.52
197.10
169.58
145.41
122.63
99.20
74.11
47.46
20.00
-7.93
-36.35
-65.32
-94.46
-122.59
-148.41
-170.61
-188.10
-200.44
-207.99
-211.51
-211.65
-208.63
-201.90
-191.01
-175.84
-157.12
-136.73
-117.94
-103.81
-95.86
-93.48
-93.84
-94.33
-92.88
-88.36
-80.75
-72.23
-64.73
-58.67
-52.74
-43.75
-31.05
-15.16
3.07
22.44
38.77
48.97
52.85
53.29
56.58
63.64
72.99
82.69
90.38
89.60
76.12
50.79
19.44
-6.76
-25.44
-38.41
-48.62
-60.55
-85.03
-131.29
-202.55
-294.38
-392.24
-488.74
-578.23
-655.32
-672.63
-601.18
-447.40
-252.41
-97.03
12.02
84.60
130.62
167.24
199.85
223.10
230.82
221.12
198.29
175.06
155.56
141.31
133.66
131.69
128.82
118.77
99.61
75.33
57.00
48.28
48.90
56.70
67.48
74.89
74.95
67.85
57.46
51.02
50.09
53.74
60.83
69.56
76.93
79.94
76.64
67.00
53.92
39.19
24.26
9.96
-4.26
-20.19
-39.40
-62.09
-86.49
-108.96
-126.20
-135.52
-135.09
-124.51
-104.97
-79.55
-52.87
-30.02
-14.91
-8.70
-9.11
-11.38
-10.15
-2.02
12.78
30.12
43.35
45.39
31.04
-1.50
-50.04
-108.58
-168.20
-218.83
-251.10
-258.72
-240.41
-200.44
-147.60
-92.59
-44.81
-10.01
10.49
18.92
19.38
16.39
14.28
17.30
29.58
54.24
91.91
139.14
188.00
227.70
247.72
241.18
206.71
148.25
73.47
-8.29
-87.57
-155.70
-205.39
-231.56
-232.26
-209.53
-169.13
-119.33
-68.86
-25.18
6.51
23.44
25.17
13.16
-9.03
-36.19
-62.26
-81.57
-90.55
-89.36
-82.77
-79.62
-89.97
-121.00
-173.34
-239.77
-307.27
-361.90
-393.97
-401.05
-387.41
-360.59
-327.20
-290.33
-249.69
-203.65
-151.56
-94.59
-34.65
27.33
92.42
162.87
239.57
319.71
396.16
459.13
500.10
515.36
507.51
484.22
454.61
425.63
400.17
377.52
355.59
333.08
310.42
289.24
271.07
256.57
245.49
237.22
231.36
227.77
226.36
226.75
228.15
229.75
231.05
232.14
233.60
235.94
239.00
241.67
242.03
238.14
228.95
215.15
199.17
184.48
174.26
170.04
170.98
174.10
175.17
170.13
156.34
133.36
103.11
69.44
37.12
10.53
-7.65
-17.18
-20.26
-20.57
-21.56
-24.95
-29.91
-33.62
-32.76
-25.46
-12.40
3.26
17.20
25.75
27.33
22.96
15.75
9.67
8.19
13.30
25.06
41.65
59.96
76.40
87.83
92.26
89.29
80.03
66.35
50.08
32.12
12.06
-11.75
-41.62
-79.46
-125.88
-179.43
-236.37
-291.23
-337.85
-370.81
-386.67
-384.69
-366.94
-337.73
-302.61
-267.09
-235.48
-210.04
-190.69
-175.33
-160.90
-144.69
-125.67
-105.07
-86.11
-72.97
-69.40
-77.57
-97.46
-127.02
-162.70
-200.23
-235.35
-264.52
-285.61
-298.15
-303.41
-303.76
-301.74
-299.23
-297.04
-295.13
-293.21
-291.17
-289.01
-286.39
-282.39
-275.71
-265.55
-252.28
-237.67
-223.81
-211.67
-199.91
-185.18
-163.47
-132.13
-91.12
-42.63
10.51
66.57
125.51
187.90
252.70
315.61
369.08
404.38
414.77
398.28
358.49
303.43
242.92
185.93
138.65
103.97
81.94
70.82
68.22
71.82
79.74
90.60
103.24
116.38
128.22
136.45
138.85
133.89
121.36
102.47
79.38
54.54
30.21
8.51
-8.47
-18.53
-19.91
-12.11
3.27
22.54
40.93
54.26
60.50
60.22
55.84
50.04
44.35
38.66
31.68
22.10
9.55
-5.02
-19.90
-33.66
-45.96
-57.84
-71.27
-88.22
-109.60
-134.84
-162.08
-188.78
-212.43
-231.13
-243.68
-249.19
-246.75
-235.66
-215.93
-188.81
-156.68
-122.27
-87.24
-51.28
-12.32
32.00
82.31
136.10
188.02
232.01
263.71
282.31
290.41
292.53
292.97
294.82
300.21
310.85
328.28
353.10
384.09
417.63
448.33
470.36
479.25
472.99
451.96
418.41
375.66
327.30
276.65
226.27
177.68
131.28
86.81
44.13
3.65
-33.65
-66.74
-95.32
-120.15
-142.69
-164.50
-186.55
-208.82
-230.26
-249.21
-263.95
-273.02
-275.56
-271.25
-260.32
-243.43
-221.63
-196.39
-169.50
-142.93
-118.45
-97.25
-79.69
-65.29
-53.11
-42.18
-32.00
-22.73
-15.06
-9.79
-7.39
-7.65
-9.63
-11.90
-12.93
-11.58
-7.36
-0.63
7.64
16.08
23.39
28.69
31.77
33.18
33.87
34.86
36.68
39.23
41.80
43.48
43.57
42.05
39.48
36.58
33.98
31.91
30.20
28.50
26.49
24.17
21.92
20.20
19.04
17.83
15.56
11.18
4.07
-5.60
-16.92
-28.40
-38.98
-48.37
-56.77
-64.30
-70.96
-76.92
-83.07
-90.89
-100.91
-113.49
-128.62
-146.07
-165.15
-184.64
-202.40
-215.05
-217.79
-202.70
-163.85
-100.25
-16.99
76.07
166.83
243.18
295.01
316.53
311.94
290.47
263.68
242.29
234.08
242.20
264.52
294.59
325.69
358.49
394.65
434.00
472.58
504.60
525.63
534.56
533.45
495.99
411.86
288.55
147.97
11.21
-110.72
-214.84
-301.20
-371.57
-429.74
-471.73
-494.41
-498.52
-489.97
-477.95
-472.73
-478.32
-498.88
-535.44
-580.89
-624.78
-655.68
-665.65
-652.02
-617.70
-571.91
-524.16
-480.95
-441.68
-401.16
-351.62
-288.12
-210.37
-122.03
-30.67
59.08
146.15
224.98
285.76
320.78
328.54
314.06
299.90
287.39
273.96
259.18
246.91
235.30
229.37
234.28
252.59
282.85
317.28
347.37
363.86
358.41
327.76
276.36
214.55
156.58
116.18
100.23
109.23
135.27
164.37
182.97
182.49
160.63
121.16
71.11
16.43
-37.84
-88.90
-140.20
-187.83
-224.63
-245.03
-245.80
-228.42
-196.24
-152.96
-104.45
-58.02
-21.36
-2.09
-4.94
-28.07
-61.59
-90.57
-100.30
-82.15
-36.19
29.81
102.62
167.91
214.18
235.48
230.94
204.14
162.33
116.45
79.10
60.18
63.45
86.15
121.62
160.92
194.70
215.06
218.14
204.71
177.86
140.89
92.74
37.16
-19.79
-73.63
-122.74
-165.08
-201.95
-231.66
-252.75
-266.64
-275.69
-283.98
-290.20
-295.58
-299.81
-298.81
-290.82
-277.15
-262.67
-251.24
-246.59
-254.38
-280.39
-326.43
-385.81
-450.10
-509.82
-558.37
-589.72
-584.64
-536.51
-456.44
-382.76
-324.07
-276.09
-226.96
-173.84
-116.05
-54.82
6.85
66.16
117.33
156.61
178.36
196.70
217.38
243.66
267.05
282.57
288.01
284.74
279.50
276.92
278.90
281.59
281.18
274.66
260.81
239.86
214.42
190.70
173.57
165.83
165.53
170.15
176.91
184.03
190.33
195.88
202.97
213.81
230.46
253.08
281.48
313.85
346.58
373.68
388.62
387.34
369.33
338.85
303.18
270.72
247.46
235.51
232.72
234.53
236.35
234.57
227.83
216.78
203.34
188.97
174.07
157.75
137.88
111.65
75.40
26.33
-35.79
-107.86
-184.29
-257.55
-319.41
-362.57
-378.13
-364.33
-329.78
-288.49
-251.90
-225.18
-208.49
-198.56
-192.50
-188.28
-185.04
-181.68
-175.99
-163.79
-143.13
-114.65
-81.19
-46.92
-15.87
8.76
25.90
37.23
46.15
55.74
67.43
80.49
92.08
98.53
96.70
85.89
69.01
51.79
40.34
38.94
48.63
66.97
89.45
111.02
127.74
137.53
139.87
134.95
123.49
106.83
87.17
67.26
49.55
35.14
23.22
11.23
-4.00
-24.47
-49.54
-75.69
-97.67
-110.82
-113.48
-108.13
-100.88
-99.01
-107.86
-128.65
-158.27
-190.80
-219.84
-239.89
-246.81
-237.53
-210.30
-165.60
-107.74
-44.98
12.03
53.40
73.39
71.90
53.58
24.91
-8.44
-42.83
-75.94
-105.42
-128.36
-142.12
-146.01
-142.25
-135.55
-131.23
-133.05
-141.92
-156.23
-173.09
-189.73
-204.01
-214.33
-219.28
-217.62
-208.93
-193.88
-174.08
-151.11
-125.63
-97.43
-66.48
-34.54
-6.33
10.93
9.48
-16.06
-66.42
-136.92
-218.62
-300.49
-371.95
-424.74
-453.86
-457.61
-437.35
-396.84
-341.25
-276.18
-206.61
-135.97
-66.08
1.84
65.48
120.21
159.68
178.38
175.11
155.41
131.07
116.19
121.83
151.58
200.61
258.41
313.70
358.77
391.48
414.23
431.25
446.06
460.24
473.35
483.42
487.39
481.61
462.97
429.99
383.90
329.20
273.06
223.82
188.64
170.99
168.96
175.08
178.24
167.53
136.61
86.55
26.08
-31.46
-72.57
-87.81
-73.65
-31.96
32.07
111.42
197.56
280.28
348.27
391.32
403.36
384.80
342.30
286.06
225.65
166.60
109.48
51.16
-12.17
-82.49
-158.71
-237.51
-314.72
-387.24
-453.89
-515.32
-573.42
-630.55
-689.11
-750.93
-816.36
-883.02
-945.21
-994.37
-1021.40
-1019.74
-987.87
-929.98
-854.18
-769.36
-682.16
-595.77
-510.52
-425.83
-341.80
-259.73
-181.58
-108.96
-42.50
18.03
73.14
123.18
168.21
207.96
242.42
272.08
298.11
322.28
346.49
372.40
400.79
431.50
463.53
495.84
527.99
560.09
592.04
622.16
646.07
657.11
648.31
615.20
558.00
481.85
394.92
305.58
219.95
141.50
72.07
13.26
-33.18
-66.33
-87.54
-101.09
-112.95
-128.35
-149.29
-173.76
-196.86
-213.29
-219.91
-216.70
-206.37
-192.58
-178.35
-165.09
-152.67
-140.23
-126.87
-112.06
-95.44
-76.43
-54.10
-27.37
4.32
40.15
77.82
114.05
145.55
170.09
186.87
196.25
198.90
195.23
185.18
168.71
146.40
119.84
91.47
64.05
40.04
21.05
7.69
-0.46
-4.66
-6.59
-7.87
-9.52
-11.59
-13.34
-13.66
-11.84
-8.00
-3.06
1.68
5.11
6.70
6.48
4.81
2.07
-1.49
-5.71
-10.32
-14.85
-18.62
-20.90
-21.13
-19.11
-14.97
-9.14
-2.21
5.22
12.59
19.59
26.32
33.40
41.77
52.38
65.57
80.68
96.26
110.81
123.58
135.16
147.00
160.50
175.89
191.80
205.72
215.16
218.73
216.76
211.07
204.47
200.05
200.86
209.38
227.03
253.45
285.86
319.33
347.95
366.67
373.18
368.64
357.03
343.28
331.09
321.41
312.26
299.95
281.10
254.52
222.00
187.68
156.23
130.82
111.86
97.21
83.71
69.00
52.64
35.79
19.78
4.48
-12.26
-33.76
-62.57
-98.82
-139.69
-180.60
-217.20
-247.26
-271.46
-292.74
-314.80
-340.63
-371.64
-407.66
-447.32
-488.37
-527.75
-561.59
-585.55
-595.89
-591.11
-573.30
-548.22
-523.52
-505.77
-497.33
-495.07
-491.60
-478.40
-449.33
-402.80
-341.40
-269.61
-191.44
-109.52
-26.25
54.40
125.91
180.39
211.31
216.52
199.51
168.37
132.94
101.60
79.42
68.05
67.09
75.67
93.12
118.65
150.43
185.03
217.77
244.04
260.87
268.11
268.39
265.85
263.95
263.80
263.69
260.22
250.33
233.25
211.13
188.33
169.58
158.00
154.08
155.93
160.46
164.92
167.89
169.29
169.65
169.27
167.64
163.63
156.13
144.94
131.21
117.26
105.77
98.68
96.11
95.99
94.54
87.46
71.44
45.37
10.72
-28.84
-68.56
-103.81
-131.13
-148.82
-157.13
-158.05
-154.68
-150.36
-147.84
-148.51
-152.37
-158.45
-165.61
-173.20
-181.31
-190.51
-201.29
-213.53
-226.37
-238.40
-248.18
-254.71
-257.76
-257.83
-255.67
-251.63
-245.10
-234.49
-217.55
-192.24
-157.42
-113.43
-62.30
-7.69
45.48
91.41
123.99
137.91
130.29
102.22
59.66
12.55
-27.74
-51.64
-54.21
-36.05
-2.19
40.12
83.66
122.42
151.74
168.02
168.99
154.66
128.13
95.11
62.03
33.32
9.60
-12.05
-35.84
-64.54
-97.63
-131.44
-160.66
-180.39
-187.20
-179.25
-156.27
-119.62
-72.48
-19.98
31.56
76.14
109.72
131.28
142.80
147.58
148.70
148.03
146.13
142.87
137.91
130.92
122.03
112.56
104.62
101.02
104.57
116.90
137.23
161.92
185.16
202.02
211.42
215.75
219.70
227.19
238.92
251.77
260.22
258.41
243.44
216.64
181.51
142.29
102.86
66.30
34.87
9.57
-11.26
-38.06
-77.39
-130.53
-192.53
-255.55
-313.15
-362.06
-401.44
-436.54
-469.95
-501.36
-530.47
-557.94
-585.36
-614.21
-645.01
-669.96
-683.25
-679.72
-656.04
-612.52
-552.73
-482.15
-406.19
-328.85
-252.23
-178.06
-106.59
-37.06
31.51
100.45
171.27
245.56
324.57
408.53
494.56
577.27
649.16
701.81
728.94
728.09
701.29
654.52
596.17
534.81
478.32
432.19
398.35
375.34
358.05
339.72
315.11
282.65
244.39
204.48
166.37
131.79
102.48
80.05
66.74
64.62
73.94
91.61
111.93
128.37
136.75
138.04
135.22
130.96
126.04
119.02
107.54
90.24
67.20
33.04
-9.84
-54.34
-93.07
-123.76
-150.19
-180.17
-217.96
-263.67
-313.80
-359.01
-392.41
-411.93
-421.06
-427.04
-437.62
-457.40
-486.31
-517.33
-539.79
-546.62
-537.96
-520.61
-503.60
-492.98
-488.59
-486.29
-477.26
-453.85
-414.13
-361.54
-301.79
-238.96
-173.99
-105.34
-33.25
44.66
129.74
221.28
316.40
411.89
505.80
597.60
688.44
760.64
798.98
794.71
750.65
678.69
592.01
500.25
408.50
330.70
263.83
208.68
167.66
142.21
131.08
130.69
136.90
140.73
135.43
114.68
79.72
35.61
-11.25
-55.59
-94.53
-127.57
-158.09
-190.80
-231.35
-280.36
-336.38
-398.16
-465.76
-539.61
-603.61
-639.48
-632.94
-581.55
-493.09
-382.55
-267.09
-161.97
-77.27
-18.36
19.19
40.58
50.03
51.92
50.08
47.65
47.18
50.92
60.40
74.33
89.09
100.88
107.48
108.71
105.74
100.21
93.64
87.34
81.77
77.15
74.77
76.91
85.50
100.34
118.18
133.47
140.58
135.39
116.77
87.26
52.14
17.54
-11.37
-31.43
-41.61
-42.12
-34.79
-22.77
-10.00
-0.26
3.86
1.78
-4.97
-13.36
-19.42
-20.49
-16.04
-7.77
1.31
8.43
12.11
12.76
12.46
15.29
24.88
43.48
70.45
102.15
132.97
157.22
171.45
170.58
155.37
132.16
111.15
100.82
103.79
116.84
133.65
147.53
152.71
149.29
135.47
111.20
79.53
46.52
19.33
3.46
0.65
8.78
24.36
44.18
65.33
85.36
101.53
110.39
108.37
93.40
66.33
31.77
-4.24
-36.55
-63.21
-86.06
-109.15
-136.07
-168.07
-203.27
-237.18
-264.74
-281.63
-285.34
-275.78
-255.11
-226.94
-195.42
-164.22
-135.86
-111.72
-92.42
-78.19
-69.20
-65.36
-65.96
-69.46
-73.84
-77.38
-79.42
-80.46
-81.43
-82.66
-83.14
-80.82
-73.54
-60.10
-40.48
-15.24
15.14
50.14
88.13
125.03
154.44
169.82
167.70
150.22
124.87
101.18
85.99
80.31
79.70
77.76
70.50
58.28
44.65
32.88
23.06
11.89
-4.77
-28.76
-57.89
-86.98
-110.59
-125.67
-132.43
-133.23
-130.57
-125.65
-118.18
-107.37
-92.91
-75.34
-55.65
-34.72
-13.11
8.82
30.61
51.54
70.66
87.42
101.87
114.55
126.00
136.43
145.45
152.36
156.85
158.90
158.99
157.90
156.31
154.36
151.67
147.38
140.70
131.64
120.57
108.53
96.91
86.99
79.44
74.59
71.97
71.23
72.32
73.69
73.02
67.66
55.50
35.72
10.64
-16.22
-39.56
-53.69
-57.83
-55.11
-51.00
-50.87
-57.64
-68.81
-81.40
-91.48
-96.15
-99.72
-109.41
-130.53
-163.34
-203.09
-239.61
-268.15
-287.68
-300.17
-315.22
-342.86
-388.19
-450.20
-524.23
-601.65
-681.84
-767.30
-825.01
-829.61
-772.71
-666.01
-530.55
-410.29
-302.52
-202.51
-110.18
-28.21
41.89
94.92
130.59
154.03
172.26
194.60
221.63
251.45
282.82
311.62
334.14
350.05
361.92
373.03
388.15
405.27
420.05
428.47
425.53
408.11
377.61
339.08
298.84
263.94
236.21
215.08
199.25
186.28
173.76
160.56
146.51
131.83
117.68
104.01
91.01
79.39
69.59
61.48
54.61
48.20
41.32
33.61
24.81
15.33
6.24
-1.21
-6.18
-8.43
-8.41
-6.92
-4.79
-2.51
-0.16
2.40
5.25
8.30
11.16
13.34
14.41
14.11
12.40
9.45
5.65
1.52
-2.32
-5.34
-7.22
-8.10
-8.43
-8.84
-9.75
-11.17
-12.73
-13.88
-14.30
-14.05
-13.49
-13.02
-12.72
-12.27
-11.14
-9.01
-6.18
-3.54
-2.30
-3.32
-6.63
-11.27
-15.66
-18.21
-18.19
-16.05
-13.34
-12.06
-13.67
-18.37
-24.95
-31.40
-35.79
-37.34
-36.76
-36.00
-37.29
-42.14
-50.39
-60.06
-67.66
-69.35
-62.34
-46.10
-23.28
0.24
16.38
16.88
-4.00
-47.23
-107.91
-176.16
-239.68
-286.92
-310.00
-306.39
-278.83
-233.96
-179.95
-123.79
-69.30
-16.68
35.93
89.85
143.52
192.00
228.86
249.58
254.18
247.38
236.14
225.72
217.19
207.73
193.35
172.29
146.67
121.54
101.99
90.51
85.96
84.66
82.55
77.20
68.50
58.03
47.82
38.97
31.36
23.86
15.23
4.93
-6.47
-17.42
-26.01
-30.73
-31.12
-27.90
-22.59
-16.85
-11.76
-7.51
-3.58
0.73
5.70
10.83
15.00
16.90
15.70
11.30
4.43
-3.70
-11.87
-19.12
-24.91
-29.05
-31.60
-32.72
-32.74
-32.16
-31.57
-31.62
-32.69
-34.75
-37.30
-39.45
-40.33
-39.36
-36.60
-32.64
-28.45
-24.90
-22.40
-20.72
-19.10
-16.63
-12.76
-7.74
-2.70
0.70
0.89
-2.86
-10.05
-19.03
-27.51
-33.49
-35.85
-34.53
-30.19
-23.50
-14.52
-2.63
13.25
33.79
58.59
85.89
112.99
137.06
156.16
169.82
179.12
186.00
192.48
199.75
207.56
213.95
215.21
206.43
182.76
141.63
84.82
19.63
-42.02
-86.87
-104.70
-92.21
-54.45
-3.25
47.41
85.88
105.40
104.20
83.46
45.61
-6.39
-68.91
-136.76
-202.64
-258.30
-297.17
-316.46
-318.25
-308.00
-291.91
-274.80
-259.22
-244.65
-227.82
-204.23
-168.98
-118.71
-52.27
28.93
121.07
212.56
287.16
330.22
336.36
313.06
273.89
230.57
189.30
151.30
115.13
79.69
48.54
21.38
-1.74
-21.16
-37.38
-50.51
-60.22
-66.32
-68.57
-66.82
-61.85
-54.27
-46.10
-39.70
-36.55
-36.82
-39.57
-42.90
-44.51
-42.87
-37.11
-27.89
-16.85
-5.75
4.10
12.07
18.26
23.30
27.65
31.74
35.37
38.00
39.04
38.11
35.12
30.22
23.84
16.42
8.60
1.03
-5.61
-10.74
-14.01
-15.62
-16.34
-17.30
-19.67
-24.12
-30.67
-38.69
-47.36
-56.00
-64.42
-72.82
-81.48
-90.40
-99.03
-106.49
-111.78
-114.27
-113.78
-110.61
-105.27
-98.35
-90.39
-81.99
-73.87
-66.76
-61.33
-57.91
-56.17
-55.15
-53.45
-49.68
-42.99
-33.44
-21.95
-9.87
1.70
12.51
23.25
35.16
49.16
65.19
81.99
97.56
110.03
118.41
122.84
124.14
123.13
120.07
114.72
106.81
96.72
85.58
74.96
66.03
58.83
52.25
44.70
35.08
23.43
11.03
-0.29
-8.94
-14.29
-16.78
-17.72
-18.63
-20.54
-23.63
-27.07
-29.42
-29.32
-26.15
-20.51
-14.33
-10.03
-9.62
-13.82
-21.97
-32.26
-42.36
-49.90
-52.93
-50.81
-43.80
-33.26
-21.24
-10.28
-2.72
0.03
-1.80
-6.48
-12.47
-17.96
-21.55
-22.10
-19.06
-12.73
-4.01
6.01
16.45
25.07
31.07
34.51
37.09
40.83
46.51
53.20
58.82
61.02
55.64
40.62
14.89
-19.83
-59.76
-100.23
-136.51
-165.25
-171.75
-150.30
-107.09
-60.63
-27.83
-14.22
-13.98
-16.53
-13.21
-0.55
11.09
19.12
22.49
23.07
23.56
25.01
26.28
24.82
18.25
3.28
-15.40
-35.63
-55.14
-72.96
-90.48
-110.92
-137.50
-171.24
-210.48
-248.67
-278.07
-290.44
-280.40
-247.90
-198.52
-141.34
-86.01
-40.24
-7.08
13.55
24.85
31.00
35.26
39.23
43.27
47.41
51.86
57.62
65.06
73.90
82.62
88.72
89.50
83.21
69.67
50.35
27.99
5.43
-14.53
-29.61
-38.18
-39.49
-33.64
-21.52
-4.59
15.45
36.66
57.06
74.64
87.61
94.68
95.59
91.46
84.57
77.82
73.67
73.32
76.38
81.17
85.53
87.72
86.93
83.43
78.09
71.98
66.01
60.66
55.96
51.54
46.74
40.87
33.42
24.17
13.24
0.92
-12.42
-26.41
-40.74
-55.00
-68.81
-81.88
-94.10
-105.62
-116.69
-127.41
-137.50
-146.05
-151.35
-151.01
-142.35
-123.20
-92.95
-53.16
-7.68
38.34
79.74
112.76
135.67
148.64
153.14
151.15
144.66
135.45
124.91
113.84
102.25
89.42
74.23
55.93
34.73
12.08
-9.51
-27.04
-37.91
-40.66
-35.44
-24.10
-9.77
4.06
14.68
21.00
23.78
25.08
27.04
30.84
36.23
42.01
47.14
51.58
56.40
62.87
71.31
80.48
88.05
91.99
91.87
89.41
87.59
89.26
95.56
105.83
118.20
130.88
142.66
152.50
158.97
160.44
156.25
148.07
140.05
137.09
141.97
153.12
164.72
169.44
162.30
143.25
116.97
89.94
66.75
47.90
30.21
9.05
-19.12
-55.30
-98.10
-144.29
-189.51
-228.89
-257.70
-272.38
-271.89
-258.27
-236.32
-211.99
-190.16
-173.06
-159.92
-148.17
-135.27
-120.23
-104.09
-89.01
-76.92
-68.32
-62.11
-56.32
-49.27
-40.64
-31.55
-23.84
-18.88
-16.79
-16.32
-15.71
-13.72
-10.35
-6.73
-4.34
-4.09
-5.73
-8.04
-9.42
-8.72
-5.71
-1.12
3.67
7.21
8.28
6.29
1.35
-5.78
-13.87
-21.64
-28.19
-33.27
-37.22
-40.52
-43.29
-44.95
-44.35
-40.25
-31.98
-19.86
-5.21
9.97
23.65
34.37
41.56
45.51
47.10
47.30
46.77
45.80
44.42
42.59
40.36
37.89
35.34
32.81
30.40
28.24
26.65
26.06
26.88
29.19
32.63
36.39
39.50
41.17
41.06
39.39
36.78
33.86
31.06
28.39
25.43
21.44
15.50
6.76
-5.36
-20.79
-38.56
-56.58
-71.86
-81.27
-82.53
-75.18
-61.01
-43.56
-27.09
-15.08
-9.33
-9.65
-14.44
-21.55
-29.10
-35.85
-41.13
-44.64
-46.31
-46.27
-44.97
-43.05
-41.12
-39.41
-37.69
-35.44
-32.22
-28.00
-23.18
-18.33
-13.82
-9.55
-5.01
0.38
6.90
14.31
21.96
29.00
34.76
38.77
40.76
40.55
38.01
33.31
27.00
20.07
13.58
8.25
4.22
1.20
-0.93
-1.62
0.45
6.59
17.05
30.14
42.35
49.47
48.34
38.05
20.19
-1.91
-24.48
-44.24
-58.68
-65.95
-64.79
-54.86
-37.27
-14.92
8.04
27.35
39.89
44.55
42.13
34.52
23.71
11.21
-2.00
-14.93
-26.29
-34.47
-38.15
-36.94
-31.79
-24.75
-18.12
-13.48
-10.94
-9.28
-6.69
-1.99
4.60
11.49
16.53
18.26
16.64
13.05
9.52
7.76
8.39
10.93
14.23
17.05
18.56
18.51
17.28
15.72
15.05
16.54
21.01
28.31
37.03
44.80
49.20
48.90
44.46
38.23
33.49
32.98
37.71
46.54
56.76
65.32
70.16
70.86
68.54
65.38
63.69
65.31
71.56
83.08
99.63
119.54
139.19
153.40
157.09
147.90
128.27
105.31
88.02
82.96
90.70
105.19
116.66
116.24
99.75
68.65
28.04
-16.53
-60.97
-102.73
-139.34
-167.40
-183.20
-184.67
-173.22
-154.19
-135.19
-123.20
-122.29
-132.84
-152.14
-176.15
-200.85
-222.72
-238.60
-245.34
-240.03
-220.97
-188.84
-147.38
-102.78
-61.80
-29.62
-8.22
3.65
9.12
11.32
12.13
11.95
10.54
7.99
5.28
3.97
5.28
9.39
15.15
20.62
24.03
24.58
22.91
20.83
20.53
23.67
30.72
40.83
52.28
63.12
71.82
77.45
79.69
78.40
73.53
65.13
53.65
40.08
26.00
13.24
3.58
-1.62
-1.73
2.91
10.83
19.54
25.97
27.36
22.18
10.84
-4.45
-20.41
-33.96
-43.23
-47.91
-49.04
-48.15
-46.65
-45.39
-44.65
-44.35
-44.30
-44.38
-44.69
-45.55
-47.47
-50.79
-55.38
-60.52
-65.10
-68.19
-69.41
-69.08
-67.83
-66.15
-64.22
-62.21
-60.66
-60.50
-62.34
-65.40
-66.89
-62.47
-47.97
-21.54
14.81
55.43
92.84
120.49
135.03
137.09
130.42
119.92
109.78
102.35
98.04
96.02
94.93
93.37
89.98
83.62
73.56
60.00
44.40
29.26
17.44
11.03
10.56
14.85
21.65
28.60
34.00
37.02
37.52
35.61
31.47
25.40
18.01
10.20
2.94
-3.12
-7.91
-11.94
-15.88
-20.25
-25.06
-29.85
-34.05
-37.24
-39.39
-40.77
-41.64
-42.03
-41.61
-39.92
-36.67
-32.07
-26.85
-21.98
-18.17
-15.50
-13.47
-11.28
-8.49
-5.33
-2.72
-1.78
-3.11
-6.30
-9.82
-11.51
-9.29
-1.89
10.84
27.87
47.44
67.42
85.73
100.58
110.63
115.05
113.64
106.86
95.85
82.21
67.67
53.64
40.79
28.95
17.41
5.46
-6.98
-19.04
-29.16
-35.68
-37.58
-34.89
-28.72
-20.71
-12.55
-5.46
0.01
3.93
6.77
9.04
11.00
12.26
11.86
8.46
0.97
-10.82
-25.83
-41.74
-55.49
-64.17
-65.84
-60.06
-47.98
-31.90
-14.71
0.84
12.62
19.33
20.55
16.64
8.56
-2.29
-14.26
-25.71
-35.15
-41.45
-43.94
-42.48
-37.46
-29.89
-21.19
-12.84
-5.97
-0.98
2.51
5.29
8.27
12.06
16.89
22.52
28.39
33.60
37.14
38.12
36.15
31.67
25.85
20.23
16.21
14.50
15.04
17.12
19.63
21.37
21.28
18.65
13.49
6.72
0.10
-4.15
-4.04
1.40
11.74
25.09
38.63
49.56
56.05
58.02
57.03
55.64
56.10
59.25
64.19
68.71
70.52
68.34
62.33
53.69
43.91
34.25
25.56
18.86
15.30
15.45
18.26
20.84
19.56
12.47
1.31
-8.53
-10.19
0.72
23.17
50.35
72.34
80.26
69.69
41.87
2.49
-40.71
-80.35
-110.79
-128.71
-133.16
-125.36
-108.34
-86.29
-63.62
-44.10
-30.35
-23.60
-23.82
-30.40
-42.54
-59.42
-79.86
-101.70
-121.16
-133.22
-133.01
-118.03
-90.09
-55.29
-22.13
1.82
12.82
11.94
3.94
-5.50
-12.21
-14.73
-13.72
-10.68
-6.69
-2.17
2.67
7.20
10.15
10.25
6.95
1.15
-5.00
-8.93
-8.83
-4.57
2.18
8.60
11.76
9.71
2.21
-9.32
-22.13
-32.98
-38.99
-38.59
-31.95
-21.05
-9.05
0.61
5.21
3.50
-4.18
-15.97
-29.20
-40.98
-48.81
-51.21
-47.95
-40.19
-30.18
-20.52
-13.24
-9.16
-7.52
-6.52
-4.32
-0.12
5.18
9.24
8.89
1.60
-13.26
-33.42
-53.69
-66.64
-64.28
-40.45
6.71
73.22
149.55
223.15
282.31
319.88
335.17
333.00
320.80
305.05
289.04
272.93
255.38
235.57
214.11
192.46
171.35
149.30
122.83
87.88
41.99
-14.16
-76.64
-139.21
-195.19
-238.96
-266.75
-276.94
-270.10
-249.12
-219.03
-186.41
-157.78
-137.71
-127.32
-124.16
-123.75
-121.92
-116.75
-108.99
-100.91
-94.43
-89.91
-86.25
-82.05
-76.99
-72.23
-69.75
-71.05
-76.01
-82.92
-89.24
-92.81
-92.62
-88.91
-82.77
-75.57
-68.64
-63.02
-59.31
-57.40
-56.49
-55.19
-52.28
-47.25
-40.61
-33.44
-26.71
-20.67
-14.88
-8.95
-3.20
0.93
1.38
-3.53
-14.17
-29.27
-46.38
-62.76
-76.41
-86.55
-93.57
-98.53
-102.44
-105.60
-107.36
-106.13
-99.76
-86.18
-63.94
-32.79
5.96
49.33
93.11
132.67
164.18
185.82
198.36
204.72
208.68
212.93
217.79
220.94
218.46
206.71
183.74
150.10
108.70
64.11
21.92
-11.57
-29.78
-27.06
-0.70
46.94
107.53
168.26
215.38
238.66
234.31
205.16
158.41
102.32
43.90
-11.87
-61.31
-101.24
-128.98
-143.14
-144.48
-136.15
-122.71
-108.83
-97.97
-91.77
-90.00
-90.54
-90.12
-85.27
-73.61
-54.96
-31.74
-8.15
11.34
23.66
27.89
25.24
18.10
9.14
0.56
-6.18
-10.58
-13.16
-15.35
-18.92
-25.17
-34.01
-43.65
-51.21
-54.01
-50.86
-42.87
-33.13
-25.46
-22.80
-26.16
-34.30
-44.54
-53.93
-60.38
-63.27
-63.43
-62.48
-61.76
-61.61
-60.86
-57.19
-47.96
-31.14
-5.73
28.51
71.44
122.49
179.73
238.93
293.24
334.36
355.12
352.07
326.66
284.23
231.42
173.80
115.07
58.23
7.29
-32.25
-55.04
-58.75
-46.51
-26.70
-10.11
-5.59
-16.66
-40.53
-69.59
-94.88
-109.25
-109.34
-95.74
-71.96
-42.83
-13.28
12.43
30.92
39.59
36.69
21.76
-3.67
-35.56
-67.60
-92.62
-104.80
-101.64
-84.90
-59.66
-32.42
-8.79
7.85
16.41
17.33
11.86
1.82
-10.22
-21.22
-28.15
-29.35
-25.21
-18.13
-11.05
-5.87
-2.54
0.46
4.70
10.43
15.94
18.69
16.59
9.19
-2.20
-15.52
-29.05
-42.19
-54.65
-66.00
-74.50
-78.09
-75.63
-67.87
-57.58
-48.42
-44.11
-45.99
-53.76
-64.48
-74.92
-82.72
-86.90
-88.16
-87.84
-88.64
-91.50
-97.57
-106.15
-116.43
-127.66
-138.34
-146.58
-149.13
-144.00
-127.03
-95.97
-48.18
17.26
99.34
196.12
303.61
417.54
531.28
642.88
729.35
769.15
750.03
678.17
577.16
472.38
399.09
353.26
322.29
293.00
259.25
221.00
173.24
119.26
63.76
11.02
-39.56
-87.35
-132.85
-174.04
-208.14
-233.59
-249.08
-256.20
-257.86
-258.94
-260.41
-261.42
-258.43
-240.08
-199.93
-138.15
-63.33
12.79
79.52
132.49
169.71
196.04
215.82
230.54
240.46
244.30
240.21
228.07
208.63
183.09
153.39
120.81
85.32
47.08
6.40
-35.54
-76.86
-115.08
-147.48
-171.39
-185.27
-189.13
-183.76
-170.46
-150.80
-126.41
-99.38
-72.11
-46.99
-26.57
-13.34
-8.96
-14.28
-29.70
-55.86
-94.02
-144.74
-206.22
-272.78
-334.98
-381.59
-403.11
-394.63
-357.02
-295.94
-219.68
-137.31
-57.95
9.60
57.76
81.76
81.32
61.26
29.64
-5.48
-39.30
-71.44
-104.42
-140.60
-179.67
-217.83
-249.16
-267.84
-269.92
-254.34
-222.92
-180.01
-131.82
-85.18
-45.88
-17.04
1.85
14.68
26.98
43.69
67.27
97.13
130.15
162.16
188.93
206.61
212.16
203.80
181.85
149.50
112.34
77.04
49.96
35.74
36.55
51.59
76.97
105.93
129.96
140.81
132.79
105.18
62.40
12.06
-38.31
-84.40
-126.16
-166.86
-210.86
-261.71
-319.17
-378.63
-432.26
-471.50
-489.97
-485.53
-460.46
-419.97
-370.74
-316.10
-255.91
-189.11
-117.87
-50.09
2.09
27.33
19.40
-23.11
-93.83
-181.86
-275.40
-364.51
-442.12
-503.20
-543.20
-559.22
-554.33
-532.11
-495.83
-447.04
-386.09
-313.81
-232.36
-144.09
-34.27
95.44
230.85
351.22
441.82
502.66
544.07
572.82
592.15
604.36
602.07
584.79
557.33
527.81
503.97
490.21
487.22
493.92
507.49
520.25
525.76
519.62
500.85
471.32
434.17
392.92
351.28
311.76
272.75
233.57
195.59
162.48
137.80
122.02
111.85
101.76
85.37
55.16
7.24
-56.97
-130.48
-203.00
-264.46
-307.55
-329.39
-323.68
-291.84
-244.53
-196.99
-159.29
-131.70
-108.54
-84.03
-56.36
-28.36
-6.89
1.86
-4.14
-22.34
-45.95
-67.86
-82.45
-86.86
-81.27
-69.20
-54.96
-41.58
-30.00
-19.91
-11.23
-4.52
0.64
3.98
4.75
2.34
-3.64
-13.23
-26.33
-42.59
-60.81
-78.77
-93.95
-104.35
-108.81
-107.08
-99.59
-87.41
-72.23
-55.88
-40.01
-25.99
-14.61
-6.03
0.18
4.76
8.41
11.47
13.89
15.32
15.33
13.81
11.29
9.04
8.86
12.36
20.11
30.92
41.81
48.86
48.68
39.77
23.03
1.39
-21.29
-41.27
-55.65
-62.46
-60.69
-50.45
-33.48
-13.39
4.64
15.08
13.68
-1.14
-27.80
-61.92
-97.48
-128.04
-147.88
-153.22
-143.08
-119.85
-89.05
-57.93
-33.39
-19.93
-18.49
-26.91
-41.46
-58.50
-75.29
-89.72
-99.56
-102.10
-94.85
-76.91
-50.14
-19.11
10.33
33.45
48.43
56.80
62.10
67.76
75.49
84.94
94.72
103.84
112.59
122.38
134.81
150.70
169.67
190.40
211.32
231.13
248.93
263.93
275.32
282.25
284.15
281.00
273.42
262.42
249.07
234.11
217.79
199.92
180.11
158.15
134.44
110.27
87.65
68.71
54.83
45.93
40.16
34.12
23.59
4.47
-26.28
-69.69
-124.01
-184.70
-245.18
-298.73
-340.49
-368.85
-385.41
-393.41
-395.54
-392.34
-382.06
-361.91
-329.76
-285.46
-230.97
-169.65
-105.40
-42.00
17.01
68.35
109.28
138.03
154.39
159.74
156.78
148.72
138.50
128.11
118.40
109.25
99.99
89.79
78.07
64.56
49.44
33.28
16.83
1.02
-13.27
-25.34
-34.75
-41.42
-45.61
-47.87
-49.00
-49.93
-51.46
-54.00
-57.41
-60.84
-63.03
-62.66
-58.89
-51.62
-41.49
-29.58
-16.91
-4.13
8.54
21.08
33.35
44.88
54.91
62.68
67.86
70.61
71.60
71.63
71.25
70.59
69.43
67.47
64.62
61.14
57.53
54.27
51.64
49.62
47.99
46.56
45.18
43.77
42.20
40.18
37.36
33.45
28.44
22.64
16.59
10.75
5.38
0.40
-4.41
-9.24
-14.10
-18.86
-23.36
-27.48
-31.13
-34.09
-35.86
-35.71
-32.95
-27.22
-18.74
-8.36
2.77
13.50
22.99
30.85
37.06
41.81
45.29
47.60
48.67
48.40
46.75
43.92
40.35
36.69
33.58
31.41
30.22
29.73
29.44
28.91
27.89
26.38
24.52
22.47
20.28
17.91
15.27
12.38
9.33
6.34
3.64
1.39
-0.40
-1.84
-3.12
-4.41
-5.83
-7.38
-9.02
-10.70
-12.37
-13.99
-15.56
-17.12
-18.78
-20.69
-23.01
-25.79
-28.87
-31.78
-33.71
-33.75
-31.05
-25.23
-16.50
-5.72
5.78
16.57
25.43
31.63
35.03
35.99
35.16
33.24
30.76
27.96
24.74
20.90
16.27
10.92
5.22
-0.29
-5.06
-8.78
-11.40
-13.12
-14.19
-14.77
-14.93
-14.77
-14.48
-14.43
-15.07
-16.74
-19.54
-23.24
-27.45
-31.76
-35.89
-39.73
-43.26
-46.49
-49.42
-51.98
-54.16
-55.97
-57.46
-58.70
-59.73
-60.51
-60.99
-61.13
-60.90
-60.34
-59.55
-58.68
-57.99
-57.78
-58.38
-59.97
-62.42
-65.08
-66.77
-65.93
-61.08
-51.32
-36.71
-18.39
1.77
21.65
39.46
54.06
65.07
72.65
77.33
79.77
80.54
80.11
78.79
76.71
73.98
70.74
67.20
63.67
60.52
57.98
56.20
55.06
54.35
53.73
52.82
51.32
48.98
45.69
41.47
36.51
31.08
25.58
20.38
15.83
12.15
9.37
7.30
5.59
3.83
1.71
-0.90
-3.88
-6.95
-9.71
-11.95
-13.61
-14.94
-16.35
-18.31
-21.11
-24.73
-28.84
-32.89
-36.33
-38.85
-40.49
-41.73
-43.26
-45.81
-49.86
-55.41
-61.89
-68.18
-72.73
-74.00
-70.79
-62.67
-50.13
-34.53
-17.70
-1.56
12.39
23.28
30.89
35.56
37.98
38.96
39.19
39.06
38.60
37.61
35.80
33.05
29.48
25.47
21.43
17.74
14.63
12.26
10.72
10.07
10.26
11.08
12.15
13.00
13.30
12.88
11.84
10.40
8.77
7.11
5.48
3.90
2.38
0.99
-0.24
-1.35
-2.44
-3.69
-5.23
-7.07
-9.10
-11.06
-12.73
-14.04
-15.11
-16.25
-17.79
-19.94
-22.75
-26.02
-29.46
-32.71
-35.53
-37.86
-39.81
-41.73
-44.10
-47.43
-52.02
-57.67
-63.54
-68.11
-69.61
-66.50
-58.09
-44.79
-28.04
-9.91
7.46
22.39
33.91
41.81
46.44
48.51
48.83
48.15
46.98
45.58
43.97
42.05
39.75
37.12
34.38
31.80
29.72
28.41
28.01
28.52
29.70
31.07
32.03
31.96
30.52
27.75
24.06
20.07
16.36
13.22
10.61
8.25
5.89
3.40
0.89
-1.42
-3.34
-4.79
-5.83
-6.59
-7.24
-7.95
-8.85
-10.03
-11.44
-12.97
-14.39
-15.49
-16.18
-16.62
-17.25
-18.60
-21.06
-24.61
-28.95
-33.45
-37.40
-40.35
-42.33
-43.96
-46.17
-49.88
-55.40
-62.40
-69.59
-74.92
-76.12
-71.63
-61.10
-45.53
-26.82
-7.08
11.38
26.80
38.33
46.11
51.17
55.22
60.22
67.86
78.73
91.18
102.81
112.02
119.00
125.14
131.58
137.72
140.89
137.49
123.26
96.69
60.20
19.28
-20.05
-53.53
-79.50
-97.78
-103.67
-94.16
-69.72
-35.51
1.21
34.07
58.70
72.68
75.90
70.76
58.35
39.69
15.82
-12.58
-45.88
-85.42
-133.58
-193.44
-257.08
-317.83
-369.37
-406.46
-424.84
-421.30
-394.58
-347.87
-288.73
-227.43
-175.22
-138.92
-119.15
-111.36
-109.42
-108.01
-105.89
-102.10
-95.93
-87.33
-75.51
-59.69
-40.06
-18.27
4.05
24.69
42.63
58.31
72.96
88.90
108.87
135.76
164.66
192.71
217.32
237.10
251.90
262.47
270.33
277.10
284.12
292.15
302.59
315.86
331.06
345.61
355.47
356.26
344.88
320.71
285.86
245.13
203.35
164.06
128.86
97.83
70.43
46.31
25.35
7.27
-8.27
-22.47
-36.89
-52.74
-70.31
-88.83
-106.68
-122.19
-134.13
-141.92
-145.73
-146.24
-144.11
-139.84
-133.77
-126.20
-117.57
-108.54
-99.74
-91.76
-85.01
-79.57
-75.25
-71.61
-68.18
-64.58
-60.72
-56.76
-53.10
-50.10
-47.97
-46.68
-46.06
-45.85
-45.90
-46.07
-46.21
-46.14
-45.63
-44.46
-42.46
-39.58
-35.84
-31.34
-26.15
-20.37
-14.08
-7.43
-0.59
6.14
12.46
18.03
22.58
25.90
27.92
28.74
28.58
27.78
26.77
25.90
25.40
25.30
25.49
25.75
25.84
25.57
24.87
23.71
22.05
19.92
17.38
14.53
11.56
8.66
5.97
3.58
1.44
-0.51
-2.36
-4.14
-5.84
-7.42
-8.84
-10.17
-11.52
-13.09
-15.01
-17.27
-19.73
-22.13
-24.24
-25.92
-27.16
-28.14
-29.09
-30.23
-31.61
-33.11
-34.33
-34.70
-33.66
-30.86
-26.32
-20.45
-13.95
-7.58
-1.94
2.70
6.34
9.20
11.61
13.84
16.09
18.45
20.89
23.30
25.43
27.12
28.22
28.81
29.10
29.42
30.00
30.91
32.08
33.29
34.33
35.12
35.70
36.15
36.47
36.54
36.15
35.17
33.57
31.57
29.47
27.51
25.83
24.38
23.03
21.66
20.17
18.56
16.86
15.10
13.30
11.46
9.58
7.65
5.71
3.73
1.69
-0.48
-2.86
-5.59
-8.73
-12.28
-16.20
-20.33
-24.46
-28.42
-32.12
-35.62
-39.09
-42.83
-47.04
-51.74
-56.56
-60.78
-63.43
-63.66
-61.04
-55.71
-48.42
-40.19
-32.04
-24.68
-18.42
-13.21
-8.82
-4.95
-1.27
2.52
6.60
11.01
15.53
19.80
23.38
26.05
27.86
29.13
30.29
31.70
33.46
35.43
37.29
38.71
39.50
39.65
39.29
38.64
37.84
36.91
35.77
34.28
32.30
29.80
26.77
23.33
19.58
15.65
11.61
7.55
3.48
-0.51
-4.40
-8.14
-11.68
-15.01
-18.13
-21.01
-23.61
-25.88
-27.67
-28.89
-29.47
-29.43
-28.94
-28.31
-27.98
-28.41
-30.00
-32.92
-37.02
-41.74
-46.25
-49.54
-50.79
-49.52
-45.74
-40.00
-33.10
-25.92
-19.15
-13.17
-8.01
-3.51
0.59
4.47
8.26
11.92
15.32
18.29
20.68
22.44
23.64
24.53
25.35
26.33
27.52
28.85
30.14
31.25
32.10
32.69
33.07
33.23
33.15
32.80
32.16
31.30
30.35
29.44
28.66
27.98
27.31
26.53
25.56
24.40
23.13
21.85
20.66
19.55
18.48
17.33
16.01
14.46
12.66
10.69
8.62
6.56
4.54
2.56
0.54
-1.61
-3.98
-6.62
-9.59
-12.88
-16.48
-20.29
-24.17
-27.94
-31.52
-35.01
-38.74
-43.08
-48.24
-54.08
-59.93
-64.75
-67.42
-67.11
-63.56
-57.19
-48.98
-40.13
-31.72
-24.37
-18.24
-13.06
-8.36
-3.70
1.13
6.13
11.08
15.70
19.74
23.04
25.58
27.45
28.83
29.97
31.08
32.34
33.85
35.59
37.46
39.28
40.86
42.07
42.82
43.15
43.14
42.88
42.48
42.03
41.63
41.34
41.19
41.08
40.89
40.39
39.41
37.85
35.77
33.33
30.74
28.17
25.67
23.21
20.72
18.12
15.41
12.62
9.84
7.12
4.54
2.10
-0.19
-2.41
-4.69
-7.19
-10.03
-13.21
-16.63
-20.10
-23.44
-26.49
-29.21
-31.68
-34.00
-36.40
-39.12
-42.41
-46.43
-51.10
-56.04
-60.50
-63.57
-64.37
-62.35
-57.50
-50.35
-41.81
-32.92
-24.54
-17.20
-11.05
-5.92
-1.56
2.31
5.85
9.13
12.13
14.78
17.00
18.73
20.02
20.91
21.53
21.97
22.32
22.68
23.12
23.67
24.36
25.13
25.84
26.36
26.61
26.61
26.51
26.44
26.47
26.49
26.25
25.47
23.93
21.58
18.59
15.29
12.09
9.32
7.18
5.66
4.61
3.77
2.94
2.02
1.00
-0.03
-0.96
-1.83
-2.74
-3.92
-5.60
-7.92
-10.89
-14.34
-18.01
-21.57
-24.81
-27.62
-30.13
-32.62
-35.48
-39.04
-43.36
-48.12
-52.58
-55.79
-56.83
-55.15
-50.79
-44.36
-36.86
-29.29
-22.45
-16.67
-11.93
-7.94
-4.36
-0.93
2.52
6.02
9.49
12.79
15.72
18.15
20.02
21.43
22.59
23.75
25.14
26.87
28.90
31.07
33.15
34.88
36.02
36.48
36.24
35.42
34.19
32.73
31.13
29.46
27.76
26.06
24.39
22.79
21.23
19.64
17.94
16.12
14.31
12.71
11.53
10.88
10.66
10.64
10.50
9.94
8.83
7.18
5.14
2.92
0.76
-1.23
-3.06
-4.81
-6.63
-8.70
-11.15
-14.05
-17.34
-20.84
-24.26
-27.37
-30.02
-32.25
-34.38
-36.85
-40.08
-44.27
-49.21
-54.24
-58.38
-60.60
-60.21
-57.05
-51.52
-44.49
-36.90
-29.59
-22.99
-17.25
-12.28
-7.89
-3.85
0.11
4.22
8.62
13.17
17.50
21.13
23.69
25.16
25.86
26.30
26.95
28.00
29.40
30.95
32.50
33.93
35.21
36.18
36.64
36.39
35.37
33.73
31.83
30.07
28.68
27.68
26.85
25.91
24.60
22.89
20.89
18.86
17.06
15.65
14.65
13.96
13.41
12.84
12.11
11.18
10.05
8.74
7.32
5.81
4.20
2.49
0.64
-1.33
-3.32
-5.17
-6.77
-8.07
-9.18
-10.27
-11.42
-12.62
-13.78
-14.81
-15.86
-17.32
-19.71
-23.54
-28.95
-35.70
-43.06
-50.06
-55.62
-58.82
-59.07
-56.28
-50.86
-43.65
-35.66
-27.83
-20.81
-14.83
-9.82
-5.52
-1.59
2.18
5.85
9.33
12.41
14.91
16.76
18.07
19.05
20.02
21.20
22.71
24.52
26.49
28.41
30.09
31.40
32.27
32.70
32.73
32.40
31.74
30.76
29.46
27.88
26.13
24.33
22.58
20.87
19.11
17.16
15.00
12.75
10.71
9.21
8.47
8.47
8.85
9.14
8.84
7.72
5.84
3.59
1.41
-0.37
-1.73
-2.94
-4.47
-6.79
-10.17
-14.59
-19.79
-25.34
-30.79
-35.82
-40.33
-44.39
-48.23
-52.12
-56.28
-60.74
-65.34
-69.61
-72.86
-74.25
-73.02
-68.72
-61.47
-51.95
-41.31
-30.83
-21.59
-14.22
-8.82
-5.04
-2.32
-0.11
2.02
4.26
6.54
8.64
10.22
10.98
10.80
9.82
8.39
6.96
5.83
5.10
4.57
3.91
2.80
1.05
-1.31
-4.16
-7.39
-11.00
-15.11
-19.87
-25.36
-31.47
-37.90
-44.27
-50.28
-55.84
-61.09
-66.30
-71.62
-76.94
-81.84
-85.72
-87.86
-87.55
-84.03
-76.58
-64.72
-48.62
-29.33
-8.77
10.79
27.56
40.81
51.04
59.53
67.55
75.61
83.36
89.99
94.76
97.58
98.88
99.31
99.14
98.00
95.00
89.19
80.00
67.65
53.18
38.17
24.27
12.79
4.38
-0.97
-3.84
-5.00
-5.18
-4.85
-4.15
-3.03
-1.41
0.61
2.66
4.13
4.20
2.09
-2.75
-10.46
-20.55
-31.92
-43.09
-52.51
-58.97
-61.79
-60.93
-56.80
-50.04
-41.39
-31.65
-21.64
-12.21
-4.18
1.96
6.06
8.41
9.57
10.15
10.56
10.95
11.22
11.11
10.37
8.93
6.93
4.72
2.72
1.24
0.39
0.05
-0.01
-0.01
-0.10
-0.33
-0.68
-1.21
-1.97
-3.02
-4.40
-6.05
-7.92
-9.95
-12.23
-14.92
-18.25
-22.41
-27.38
-32.86
-38.23
-42.65
-45.26
-45.43
-42.94
-38.12
-31.68
-24.49
-17.30
-10.59
-4.49
1.04
6.19
11.06
15.69
20.08
24.14
27.82
31.04
33.70
35.71
37.00
37.64
37.79
37.77
37.88
38.38
39.38
40.78
42.36
43.76
44.66
44.76
43.90
42.10
39.56
36.67
33.89
31.67
30.23
29.56
29.38
29.31
29.03
28.40
27.52
26.53
25.59
24.66
23.58
22.11
20.11
17.60
14.79
11.92
9.16
6.57
4.05
1.45
-1.36
-4.40
-7.58
-10.76
-13.79
-16.59
-19.19
-21.72
-24.37
-27.40
-31.04
-35.46
-40.63
-46.30
-51.89
-56.62
-59.66
-60.41
-58.61
-54.53
-48.77
-42.12
-35.28
-28.67
-22.46
-16.57
-10.88
-5.25
0.35
5.87
11.16
16.06
20.35
23.88
26.60
28.59
30.05
31.25
32.42
33.71
35.18
36.78
38.45
40.11
41.66
42.91
43.70
43.88
43.44
42.55
41.46
40.42
39.57
38.81
37.98
36.86
35.43
33.79
32.10
30.49
28.99
27.50
25.96
24.38
22.78
21.22
19.67
17.97
16.02
13.77
11.32
8.83
6.45
4.21
2.02
-0.32
-2.99
-6.09
-9.63
-13.50
-17.50
-21.37
-24.87
-27.87
-30.47
-33.01
-35.96
-39.75
-44.56
-50.19
-56.02
-61.17
-64.73
-65.93
-64.45
-60.38
-54.27
-46.98
-39.37
-32.17
-25.75
-20.14
-15.10
-10.30
-5.43
-0.39
4.78
9.89
14.63
18.72
21.95
24.30
25.92
27.12
28.24
29.51
31.02
32.74
34.50
36.15
37.56
38.64
39.36
39.69
39.64
39.19
38.38
37.25
35.85
34.22
32.44
30.56
28.64
26.73
24.87
23.12
21.50
20.03
18.66
17.29
15.82
14.18
12.31
10.25
8.01
5.62
3.10
0.52
-2.01
-4.36
-6.48
-8.44
-10.40
-12.58
-15.10
-17.91
-20.85
-23.70
-26.37
-28.94
-31.70
-34.99
-39.08
-44.04
-49.56
-55.04
-59.62
-62.44
-62.84
-60.57
-55.85
-49.28
-41.68
-33.85
-26.40
-19.67
-13.77
-8.65
-4.14
-0.04
3.87
7.72
11.52
15.16
18.41
21.05
22.99
24.33
25.32
26.27
27.36
28.64
30.05
31.41
32.62
33.58
34.20
34.42
34.14
33.36
32.18
30.81
29.49
28.40
27.57
26.84
26.00
24.89
23.47
21.84
20.16
18.62
17.31
16.22
15.25
14.27
13.14
11.76
10.12
8.31
6.47
4.73
3.10
1.51
-0.23
-2.28
-4.71
-7.44
-10.31
-13.13
-15.76
-18.17
-20.44
-22.71
-25.15
-27.93
-31.18
-34.95
-39.18
-43.63
-47.88
-51.37
-53.49
-53.68
-51.65
-47.43
-41.43
-34.29
-26.76
-19.50
-12.95
-7.27
-2.43
1.77
5.58
9.29
13.13
17.26
21.63
25.99
29.90
32.85
34.63
35.44
35.97
37.18
39.84
44.15
49.54
54.86
58.87
60.89
61.16
60.83
61.45
64.23
69.38
75.89
81.93
85.70
86.35
84.49
82.11
81.60
84.65
91.28
99.58
106.47
108.83
104.83
94.48
79.51
62.55
46.57
34.46
28.75
31.04
41.07
55.60
68.30
71.37
58.54
28.39
-14.37
-60.53
-100.62
-129.32
-147.35
-159.66
-171.16
-182.74
-190.16
-186.59
-167.08
-131.65
-85.64
-36.68
9.59
52.39
95.54
144.21
200.77
262.17
320.34
365.06
388.14
386.43
362.64
323.59
277.30
229.85
183.99
139.42
94.36
47.37
-1.65
-51.65
-101.32
-150.07
-198.21
-246.23
-293.82
-339.49
-381.34
-418.34
-451.48
-483.10
-515.07
-546.84
-574.62
-592.65
-595.93
-582.61
-554.87
-517.59
-475.87
-432.86
-389.09
-343.03
-292.41
-235.25
-170.74
-100.00
-26.60
43.51
103.13
145.86
168.46
171.95
161.44
144.51
129.12
121.71
126.26
143.69
171.73
205.11
236.41
257.73
262.95
249.71
220.08
179.69
135.70
94.73
61.48
38.21
25.05
20.46
21.84
26.12
30.58
33.40
34.13
33.43
32.46
32.20
32.97
34.46
36.09
37.40
38.18
38.27
37.46
35.41
31.97
27.47
22.84
19.43
18.43
20.45
25.13
31.41
37.83
43.18
46.86
49.11
50.89
53.69
59.37
69.71
85.81
107.25
131.42
153.60
168.30
171.30
161.67
142.38
119.22
98.33
83.94
77.18
76.62
79.65
83.97
88.39
92.69
97.18
102.36
108.83
117.41
128.98
143.94
161.74
180.50
197.17
208.20
210.56
202.62
184.57
158.69
128.54
97.91
69.65
44.68
21.84
-1.61
-28.72
-61.24
-98.45
-136.80
-170.58
-193.59
-201.04
-191.21
-166.18
-131.41
-94.57
-63.85
-46.29
-46.35
-65.00
-99.63
-144.64
-192.83
-237.06
-271.61
-292.88
-299.48
-292.01
-272.66
-245.28
-214.60
-185.48
-161.64
-144.61
-133.40
-125.16
-116.63
-105.53
-91.36
-75.22
-59.00
-44.35
-32.02
-21.81
-12.86
-4.15
5.11
15.34
26.55
38.42
50.42
61.99
72.68
82.19
90.50
97.78
104.24
110.21
116.00
122.05
128.93
137.16
147.05
158.33
170.06
180.68
188.30
191.25
188.40
179.48
165.09
146.61
126.23
107.04
92.87
87.71
94.42
113.29
141.07
171.44
197.03
212.35
216.31
212.66
208.09
208.34
214.96
223.83
226.65
214.65
182.11
128.06
55.35
-31.50
-127.94
-229.45
-330.35
-422.72
-497.18
-545.47
-563.69
-554.14
-524.52
-484.95
-444.22
-407.20
-374.61
-344.34
-313.55
-280.02
-242.37
-199.36
-149.38
-90.64
-22.53
52.94
130.22
200.74
255.36
287.33
294.66
280.94
254.10
223.62
197.39
179.61
170.40
167.16
166.35
165.15
161.97
155.91
145.92
130.49
107.87
77.05
38.40
-6.32
-55.18
-107.30
-163.05
-222.65
-283.88
-340.56
-383.31
-402.61
-392.76
-354.51
-295.09
-225.49
-156.45
-95.36
-44.99
-4.49
28.76
57.42
83.24
106.99
128.35
145.96
157.52
160.29
152.42
134.11
108.21
79.71
54.01
34.79
22.80
15.93
10.78
4.72
-2.60
-9.34
-12.67
-10.71
-3.62
6.50
16.83
25.20
30.67
33.10
32.07
26.22
13.68
-6.60
-33.36
-62.81
-89.62
-108.98
-118.56
-119.27
-114.37
-107.86
-103.06
-101.92
-105.23
-113.02
-124.71
-138.84
-152.93
-163.71
-167.97
-163.71
-151.03
-132.26
-111.36
-92.78
-80.35
-76.56
-82.29
-96.64
-117.16
-140.26
-162.26
-180.48
-194.11
-204.21
-212.55
-220.10
-225.84
-226.60
-217.93
-196.10
-159.93
-111.93
-58.02
-6.24
35.57
62.25
72.65
69.95
60.48
51.68
49.98
59.37
80.57
111.38
147.75
185.04
219.36
248.64
272.94
294.46
316.67
342.24
371.82
403.96
435.58
463.29
484.58
497.90
503.43
502.76
496.81
485.57
468.62
445.36
415.29
378.06
332.20
277.01
213.82
143.28
66.30
-15.13
-98.40
-181.23
-262.44
-343.38
-424.06
-501.19
-572.99
-638.84
-698.23
-750.36
-793.53
-824.74
-842.34
-843.30
-822.69
-780.57
-720.57
-646.86
-562.89
-470.95
-359.08
-229.30
-105.24
8.06
112.27
205.43
284.19
344.58
384.05
403.13
404.30
395.11
387.80
390.64
406.79
435.16
470.98
507.05
535.32
547.01
537.22
507.64
462.32
407.53
351.33
300.96
260.69
230.63
206.29
182.34
155.57
123.52
85.34
42.37
-2.57
-45.53
-81.86
-107.00
-116.17
-104.80
-71.12
-17.04
51.35
124.11
188.96
233.65
248.70
230.27
181.46
110.87
30.41
-47.93
-114.73
-164.59
-196.07
-210.89
-212.61
-205.46
-193.53
-180.01
-167.17
-156.10
-146.76
-138.47
-130.34
-121.26
-109.97
-95.17
-75.38
-50.14
-19.75
14.98
52.64
90.41
124.68
151.72
168.85
176.20
175.22
168.97
161.60
156.88
155.99
158.24
162.02
165.88
170.09
173.52
174.31
170.94
162.70
148.08
126.05
95.63
55.53
5.48
-57.10
-134.61
-224.44
-314.44
-389.51
-438.74
-461.03
-475.11
-488.93
-506.60
-530.92
-564.86
-603.32
-645.73
-690.91
-734.51
-768.40
-780.90
-764.18
-716.13
-640.49
-545.16
-441.06
-337.17
-238.79
-147.55
-61.88
18.44
92.54
159.69
220.26
274.38
322.67
365.44
402.30
433.23
457.16
473.53
483.27
488.85
492.88
498.31
507.92
523.82
546.99
575.51
604.47
626.82
635.29
624.32
592.31
541.82
478.22
407.57
334.57
262.21
192.60
128.01
71.18
24.77
-9.86
-33.52
-49.09
-60.40
-70.88
-82.53
-95.57
-108.80
-120.41
-128.84
-133.43
-134.58
-133.45
-131.18
-128.05
-123.05
-114.22
-99.75
-79.01
-53.18
-25.01
2.32
26.39
46.40
63.01
77.59
91.15
103.92
115.49
125.55
134.29
142.17
149.18
154.13
154.76
148.63
134.56
113.56
88.74
64.18
43.32
27.95
17.95
11.97
8.27
5.40
2.29
-1.80
-7.36
-14.59
-23.33
-33.04
-43.14
-53.32
-63.77
-75.18
-88.42
-104.11
-122.23
-141.83
-161.17
-178.05
-190.56
-197.80
-200.31
-199.93
-198.90
-198.67
-199.05
-198.19
-193.57
-183.40
-167.65
-148.07
-127.29
-107.46
-89.40
-72.67
-56.51
-40.76
-26.18
-13.88
-4.41
2.99
10.20
19.30
31.66
47.39
65.59
84.91
103.93
121.27
135.45
144.85
148.11
144.81
135.95
123.89
111.48
100.91
92.77
85.94
78.28
67.76
53.45
35.87
16.68
-2.08
-18.57
-31.68
-41.07
-47.10
-50.59
-52.56
-53.99
-55.58
-57.55
-59.71
-61.66
-63.20
-64.53
-66.06
-68.03
-70.12
-71.48
-71.05
-68.17
-63.02
-56.62
-50.38
-45.40
-42.05
-39.72
-37.05
-32.43
-24.51
-12.83
1.75
17.01
29.95
37.90
39.69
36.35
31.03
28.08
31.63
44.09
65.01
90.77
115.16
130.87
131.52
113.68
78.15
29.80
-23.93
-75.39
-118.80
-151.31
-172.53
-183.42
-185.18
-178.83
-165.71
-147.77
-127.75
-108.54
-92.39
-80.25
-71.62
-65.16
-59.48
-53.72
-47.72
-41.72
-36.04
-30.85
-26.22
-22.20
-18.81
-15.98
-13.34
-10.33
-6.50
-1.80
3.19
7.48
10.14
10.88
10.20
9.10
8.63
9.23
10.59
11.91
12.40
11.77
10.26
8.38
6.55
4.91
3.30
1.59
-0.14
-1.56
-2.33
-2.50
-2.63
-3.64
-6.28
-10.68
-16.11
-21.26
-24.81
-25.94
-24.57
-21.15
-16.19
-9.92
-2.25
6.94
17.49
28.78
39.80
49.54
57.35
63.16
67.60
71.84
77.33
85.46
97.08
112.00
128.82
144.93
157.20
162.83
160.38
150.33
135.06
118.25
103.87
95.25
94.30
101.08
113.76
128.89
142.34
150.68
152.72
150.24
147.39
148.59
156.07
168.21
179.92
184.83
178.36
160.00
133.65
106.03
84.02
72.50
73.24
85.23
105.55
130.38
155.63
177.32
191.91
196.78
190.71
174.18
149.36
119.77
89.35
61.59
38.63
20.98
7.74
-2.77
-12.12
-21.12
-29.62
-36.68
-41.09
-41.94
-38.94
-32.51
-23.57
-13.23
-2.44
8.21
18.45
28.27
37.67
46.56
54.70
61.76
67.45
71.62
74.31
75.70
76.09
75.73
74.88
73.71
72.29
70.67
68.87
66.88
64.63
61.99
58.78
54.82
49.99
44.27
37.81
30.83
23.50
15.92
8.01
-0.47
-9.75
-19.97
-30.99
-42.48
-53.92
-64.87
-75.14
-84.95
-94.75
-105.16
-116.58
-129.04
-142.26
-155.71
-168.89
-181.58
-193.93
-206.38
-219.57
-234.24
-251.15
-270.75
-292.83
-316.02
-337.75
-354.62
-363.47
-362.49
-351.90
-333.92
-311.81
-288.67
-266.46
-245.87
-226.70
-208.64
-191.76
-176.52
-163.35
-152.26
-142.70
-133.79
-124.84
-115.63
-106.50
-98.10
-90.88
-84.79
-79.30
-73.74
-67.69
-61.31
-55.25
-50.30
-46.93
-44.99
-43.90
-42.92
-41.61
-40.02
-38.51
-37.53
-37.30
-37.67
-38.31
-38.83
-38.99
-38.77
-38.22
-37.43
-36.51
-35.67
-35.22
-35.54
-36.95
-39.59
-43.41
-48.17
-53.67
-59.74
-66.26
-73.16
-80.40
-87.97
-95.94
-104.47
-113.66
-123.52
-134.00
-145.10
-157.01
-170.06
-184.31
-199.11
-212.91
-223.43
-228.53
-226.99
-219.06
-206.33
-191.06
-175.38
-160.65
-147.43
-135.63
-124.89
-114.75
-104.82
-94.77
-84.48
-74.10
-64.05
-54.84
-46.75
-39.67
-33.06
-26.23
-18.65
-10.31
-1.72
6.19
12.51
16.55
18.18
18.04
17.32
17.63
20.52
26.94
36.66
47.76
56.89
60.19
54.84
40.50
19.79
-2.58
-21.60
-33.90
-38.90
-38.39
-35.18
-31.56
-28.42
-25.48
-22.16
-18.44
-15.12
-13.26
-13.36
-14.90
-16.54
-16.80
-14.63
-10.11
-4.26
1.41
5.58
7.67
7.99
7.51
7.38
8.41
10.79
14.08
17.50
20.33
22.22
23.29
24.08
25.33
27.71
31.58
37.02
43.78
51.41
59.28
66.75
73.37
79.06
84.28
89.88
96.80
105.68
116.50
128.68
141.35
153.78
165.79
177.85
190.85
205.89
224.00
245.85
271.31
299.05
326.28
349.22
364.03
368.12
361.08
344.84
322.78
298.45
274.46
252.02
231.28
212.00
194.09
177.71
163.07
150.06
138.22
126.88
115.53
103.99
92.47
81.52
71.75
63.55
56.94
51.51
46.62
41.65
36.28
30.63
25.12
20.24
16.29
13.26
10.84
8.68
6.52
4.31
2.16
0.25
-1.28
-2.39
-3.15
-3.69
-4.14
-4.61
-5.10
-5.56
-5.90
-6.08
-6.14
-6.18
-6.34
-6.71
-7.27
-7.87
-8.31
-8.42
-8.15
-7.56
-6.85
-6.18
-5.64
-5.26
-4.96
-4.67
-4.34
-3.94
-3.51
-3.05
-2.63
-2.26
-2.01
-1.94
-2.08
-2.46
-3.04
-3.75
-4.50
-5.21
-5.82
-6.30
-6.65
-6.91
-7.14
-7.45
-7.94
-8.68
-9.70
-10.87
-12.05
-12.96
-13.34
-13.00
-11.86
-10.02
-7.77
-5.51
-3.63
-2.38
-1.83
-1.84
-2.17
-2.57
-2.92
-3.24
-3.63
-4.19
-4.90
-5.60
-6.12
-6.35
-6.33
-6.23
-6.24
-6.39
-6.58
-6.58
-6.21
-5.43
-4.43
-3.43
-2.63
-2.01
-1.48
-0.94
-0.36
0.12
0.33
0.20
-0.20
-0.71
-1.13
-1.36
-1.48
-1.68
-2.14
-2.89
-3.83
-4.68
-5.17
-5.20
-4.85
-4.38
-4.05
-4.02
-4.26
-4.62
-4.89
-4.98
-4.92
-4.84
-4.90
-5.18
-5.63
-6.19
-6.74
-7.24
-7.65
-7.90
-7.96
-7.78
-7.39
-6.86
-6.35
-5.96
-5.76
-5.73
-5.73
-5.66
-5.37
-4.84
-4.06
-3.12
-2.17
-1.39
-0.93
-0.88
-1.23
-1.84
-2.50
-3.00
-3.20
-3.10
-2.79
-2.45
-2.23
-2.23
-2.41
-2.67
-2.89
-3.03
-3.03
-2.95
-2.78
-2.49
-2.07
-1.53
-0.94
-0.40
0.00
0.31
0.58
0.88
1.23
1.55
1.72
1.67
1.38
0.92
0.39
-0.15
-0.67
-1.19
-1.77
-2.43
-3.20
-4.04
-4.84
-5.47
-5.84
-5.88
-5.61
-5.14
-4.62
-4.16
-3.90
-3.94
-4.33
-5.08
-6.10
-7.21
-8.19
-8.79
-8.86
-8.41
-7.60
-6.73
-6.04
-5.73
-5.79
-6.11
-6.54
-6.94
-7.30
-7.65
-8.03
-8.40
-8.69
-8.80
-8.71
-8.51
-8.39
-8.53
-9.00
-9.72
-10.49
-11.09
-11.39
-11.36
-11.04
-10.48
-9.65
-8.55
-7.16
-5.59
-3.96
-2.44
-1.12
0.00
1.02
2.04
3.21
4.65
6.42
8.49
10.72
12.88
14.73
16.07
16.81
16.96
16.61
15.87
14.87
13.69
12.45
11.21
10.02
8.90
7.85
6.91
6.16
5.66
5.43
5.32
5.11
4.51
3.38
1.73
-0.21
-2.08
-3.54
-4.35
-4.46
-4.03
-3.29
-2.52
-1.97
-1.82
-2.11
-2.79
-3.66
-4.53
-5.27
-5.87
-6.41
-6.97
-7.50
-7.81
-7.63
-6.83
-5.50
-3.94
-2.50
-1.40
-0.67
-0.20
0.14
0.33
0.31
0.03
-0.43
-0.81
-0.85
-0.39
0.51
1.63
2.71
3.56
4.15
4.54
4.85
5.12
5.38
5.65
6.01
6.54
7.32
8.32
9.41
10.36
10.98
11.12
10.86
10.39
9.96
9.78
9.97
10.52
11.26
11.95
12.32
12.10
11.15
9.49
7.23
4.62
1.91
-0.63
-2.72
-4.13
-4.71
-4.50
-3.78
-2.98
-2.54
-2.66
-3.20
-3.74
-3.84
-3.33
-2.39
-1.48
-1.07
-1.34
-2.09
-2.83
-3.05
-2.49
-1.26
0.18
1.23
1.35
0.35
-1.50
-3.49
-4.66
-4.10
-1.25
3.87
10.63
17.93
24.53
29.32
31.57
31.10
28.27
23.83
18.68
13.69
9.40
6.01
3.35
1.09
-1.11
-3.49
-6.12
-8.93
-11.80
-14.52
-16.86
-18.55
-19.39
-19.28
-18.32
-16.75
-14.93
-13.22
-11.85
-10.93
-10.45
-10.34
-10.53
-10.96
-11.56
-12.25
-12.99
-13.78
-14.66
-15.63
-16.57
-17.23
-17.30
-16.54
-14.95
-12.82
-10.67
-9.00
-8.11
-7.98
-8.33
-8.85
-9.32
-9.75
-10.34
-11.28
-12.62
-14.18
-15.63
-16.60
-16.88
-16.46
-15.58
-14.53
-13.56
-12.78
-12.19
-11.76
-11.49
-11.36
-11.34
-11.29
-11.00
-10.31
-9.16
-7.69
-6.16
-4.84
-3.86
-3.15
-2.58
-1.95
-1.18
-0.29
0.56
1.20
1.43
1.08
0.10
-1.39
-3.18
-4.95
-6.43
-7.47
-7.97
-7.96
-7.41
-6.37
-4.93
-3.26
-1.65
-0.40
0.30
0.39
0.00
-0.63
-1.27
-1.81
-2.18
-2.43
-2.62
-2.74
-2.75
-2.61
-2.31
-1.95
-1.62
-1.43
-1.35
-1.27
-1.03
-0.53
0.18
0.98
1.67
2.14
2.39
2.52
2.59
2.64
2.65
2.57
2.41
2.22
2.07
1.99
1.99
2.03
2.06
2.01
1.80
1.41
0.83
0.15
-0.51
-1.01
-1.31
-1.47
-1.60
-1.82
-2.11
-2.40
-2.53
-2.42
-2.08
-1.59
-1.07
-0.56
-0.06
0.44
0.91
1.29
1.51
1.56
1.52
1.46
1.46
1.50
1.56
1.54
1.43
1.27
1.08
0.90
0.66
0.35
-0.06
-0.49
-0.79
-0.82
-0.49
0.15
0.94
1.65
2.11
2.23
2.00
1.52
0.93
0.37
-0.04
-0.18
0.04
0.59
1.40
2.30
3.12
3.77
4.26
4.61
4.94
5.27
5.60
5.91
6.20
6.45
6.70
6.99
7.33
7.74
8.20
8.67
9.05
9.23
9.02
8.28
6.93
5.08
2.99
0.99
-0.58
-1.57
-2.02
-2.13
-2.13
-2.21
-2.44
-2.82
-3.23
-3.56
-3.68
-3.56
-3.14
-2.53
-1.91
-1.50
-1.48
-1.86
-2.48
-3.04
-3.34
-3.31
-3.11
-3.01
-3.27
-3.96
-4.93
-5.88
-6.48
-6.50
-5.90
-4.86
-3.66
-2.60
-1.87
-1.55
-1.59
-1.84
-2.10
-2.25
-2.18
-1.85
-1.28
-0.56
0.14
0.65
0.88
0.86
0.75
0.79
1.11
1.72
2.46
3.09
3.43
3.46
3.26
3.02
2.88
2.85
2.91
2.92
2.81
2.56
2.24
2.00
1.98
2.26
2.78
3.38
3.85
4.04
3.91
3.59
3.21
2.91
2.71
2.58
2.41
2.14
1.80
1.39
0.97
0.57
0.21
-0.07
-0.23
-0.27
-0.20
-0.11
-0.09
-0.20
-0.44
-0.75
-1.04
-1.25
-1.36
-1.42
-1.48
-1.57
-1.65
-1.64
-1.45
-1.05
-0.49
0.17
0.79
1.35
1.83
2.29
2.78
3.29
3.80
4.22
4.51
4.64
4.65
4.61
4.56
4.51
4.43
4.30
4.07
3.74
3.35
2.97
2.67
2.48
2.35
2.19
1.87
1.31
0.58
-0.20
-0.81
-1.17
-1.27
-1.20
-1.04
-0.79
-0.39
0.18
0.88
1.57
2.10
2.41
2.53
2.56
2.54
2.44
2.12
1.53
0.74
-0.05
-0.65
-0.96
-1.10
-1.30
-1.79
-2.68
-3.86
-5.10
-6.10
-6.60
-6.48
-5.78
-4.70
-3.51
-2.48
-1.79
-1.45
-1.34
-1.27
-1.06
-0.59
0.10
0.90
1.57
1.97
1.99
1.70
1.30
0.99
0.88
0.95
1.11
1.26
1.42
1.69
2.20
2.96
3.79
4.40
4.55
4.15
3.39
2.59
2.05
1.84
1.86
1.86
1.62
1.08
0.38
-0.24
-0.58
-0.59
-0.34
-0.01
0.26
0.38
0.35
0.22
0.01
-0.23
-0.52
-0.83
-1.15
-1.48
-1.82
-2.21
-2.67
-3.26
-4.01
-4.89
-5.83
-6.72
-7.40
-7.77
-7.83
-7.66
-7.43
-7.32
-7.48
-7.97
-8.82
-9.96
-11.35
-12.92
-14.58
-16.19
-17.61
-18.78
-19.73
-20.68
-21.95
-23.91
-26.78
-30.58
-35.15
-40.17
-45.46
-50.97
-56.93
-63.66
-71.41
-80.31
-90.28
-101.11
-112.46
-123.95
-135.13
-145.48
-154.47
-161.72
-167.02
-170.44
-172.34
-173.22
-173.68
-174.40
-176.22
-180.07
-186.98
-197.75
-212.77
-231.73
-253.68
-277.37
-301.66
-326.02
-350.67
-376.43
-404.22
-434.37
-466.06
-497.08
-524.08
-543.21
-551.04
-545.36
-525.68
-493.18
-450.17
-399.33
-343.03
-283.06
-220.74
-157.28
-94.02
-32.43
26.07
80.39
129.84
174.06
212.81
245.88
273.11
294.46
310.17
320.81
327.27
330.63
332.08
332.80
333.83
335.76
338.52
341.27
342.55
340.80
334.97
324.95
311.70
296.94
282.44
269.39
258.04
247.71
237.31
225.82
213.01
199.61
187.29
178.32
174.97
178.97
191.08
210.72
235.65
261.89
284.18
296.98
296.20
280.80
253.43
219.72
186.18
157.72
136.08
119.84
106.07
92.37
78.29
65.25
55.22
49.40
47.39
47.60
48.20
48.04
47.04
45.83
45.10
44.97
44.87
43.70
40.41
34.47
26.21
16.83
8.08
1.64
-1.56
-1.79
-0.39
0.87
0.72
-0.97
-3.17
-4.30
-3.03
0.86
6.53
12.44
17.25
20.49
22.87
26.05
31.82
41.41
54.77
70.50
86.29
99.95
110.29
117.57
122.86
127.21
131.03
134.24
136.84
139.45
142.94
147.38
151.09
150.56
141.76
122.24
92.70
56.97
20.40
-12.33
-38.79
-58.91
-73.83
-84.60
-91.61
-94.88
-94.80
-92.43
-89.46
-87.43
-87.08
-87.97
-88.83
-88.26
-85.43
-80.49
-74.40
-68.48
-63.75
-60.58
-58.66
-57.35
-56.08
-54.61
-52.98
-51.35
-49.66
-47.66
-45.01
-41.62
-37.86
-34.43
-32.23
-31.87
-33.37
-35.95
-38.24
-38.71
-36.19
-30.49
-22.47
-13.76
-5.94
0.25
5.38
11.20
19.74
32.25
48.36
66.03
82.19
93.88
99.25
98.35
93.30
88.15
88.13
98.16
120.99
155.21
194.53
229.05
248.66
247.22
225.47
190.83
154.18
125.06
107.94
101.34
99.92
97.91
91.95
81.72
68.85
54.99
40.33
23.39
2.00
-25.43
-58.51
-94.51
-128.69
-155.45
-170.15
-170.61
-158.04
-136.88
-113.48
-94.35
-84.11
-84.16
-92.18
-102.88
-109.80
-107.63
-94.27
-71.47
-43.86
-16.89
5.32
20.76
29.13
30.58
24.93
11.92
-7.73
-31.27
-54.09
-71.02
-78.46
-75.84
-65.81
-52.97
-42.00
-35.89
-35.45
-39.65
-46.67
-54.80
-62.88
-70.20
-76.18
-80.14
-81.41
-79.85
-76.16
-71.91
-69.10
-69.59
-74.51
-83.72
-95.69
-107.52
-115.44
-115.76
-106.06
-86.24
-58.75
-27.85
1.79
26.64
45.25
58.11
66.85
73.21
78.27
82.45
85.71
88.02
89.46
90.23
90.51
90.48
90.35
90.39
90.94
92.11
93.64
94.84
94.77
92.71
88.54
82.93
77.17
72.59
70.07
69.63
70.51
71.43
71.20
69.06
64.82
58.86
51.99
45.35
40.30
38.16
39.61
44.09
49.52
52.78
51.08
43.67
32.78
23.13
19.86
25.69
39.06
54.12
63.06
59.52
41.45
12.04
-21.62
-51.50
-71.54
-79.44
-76.67
-67.03
-54.67
-42.68
-32.49
-24.25
-17.66
-12.47
-8.49
-5.14
-1.17
5.05
14.60
26.97
39.87
49.96
54.61
53.41
48.78
44.99
46.07
53.66
66.00
78.50
85.72
83.54
70.62
48.47
20.24
-10.89
-42.83
-74.69
-106.01
-135.78
-161.98
-182.07
-194.18
-198.14
-195.65
-189.57
-182.67
-176.44
-170.81
-164.65
-156.80
-146.91
-135.59
-123.96
-112.92
-102.69
-92.88
-82.82
-72.12
-60.87
-49.64
-39.23
-30.30
-23.15
-17.62
-13.12
-8.87
-4.18
1.39
7.87
14.98
22.34
29.67
36.90
44.02
50.97
57.41
62.86
66.79
68.88
69.11
67.72
65.14
61.74
57.88
53.86
49.92
46.24
42.81
39.51
36.01
32.00
27.27
21.84
16.02
10.41
5.72
2.67
1.81
3.24
6.67
11.43
16.73
21.89
26.43
30.08
32.65
33.84
33.34
30.96
26.88
21.85
17.04
13.77
13.14
15.65
20.95
27.68
33.62
36.02
32.42
21.60
4.25
-16.93
-38.03
-55.15
-65.69
-68.91
-65.71
-57.83
-46.92
-34.05
-19.84
-4.84
10.12
23.92
35.41
43.87
49.17
51.79
52.58
52.47
52.24
52.37
53.05
54.19
55.60
57.18
59.02
61.39
64.64
68.93
74.04
79.36
84.06
87.39
88.90
88.58
86.69
83.52
79.24
73.92
67.62
60.65
53.51
46.81
41.00
36.17
31.87
27.32
21.60
14.09
4.74
-5.88
-16.72
-26.72
-35.09
-41.64
-46.69
-50.81
-54.52
-57.98
-60.90
-62.65
-62.49
-59.85
-54.58
-47.02
-37.97
-28.57
-19.99
-13.19
-8.64
-6.30
-5.64
-5.87
-6.22
-6.10
-5.29
-3.90
-2.30
-0.89
0.12
1.00
2.60
6.22
13.22
24.25
38.83
55.03
69.97
80.77
85.53
83.99
77.36
67.65
56.95
46.93
38.82
33.52
31.44
32.32
35.03
37.79
38.81
37.11
32.92
27.52
22.47
18.92
17.20
16.78
16.54
14.81
9.42
-2.24
-22.50
-52.34
-90.42
-132.93
-174.38
-209.26
-233.65
-246.12
-247.64
-240.71
-228.37
-213.51
-198.57
-185.48
-175.57
-169.31
-166.13
-164.49
-162.31
-157.74
-149.84
-138.92
-126.26
-113.59
-102.39
-93.48
-86.89
-82.12
-78.46
-75.24
-71.95
-68.08
-63.19
-56.89
-49.05
-39.91
-30.00
-19.86
-9.74
0.52
11.36
23.19
36.06
49.56
62.96
75.61
87.08
97.20
105.90
113.10
118.75
122.96
126.12
128.76
131.22
133.49
135.18
135.80
135.11
133.28
130.68
127.41
122.68
114.72
101.13
79.72
49.49
11.41
-31.50
-74.72
-113.15
-142.27
-159.08
-162.51
-153.47
-134.49
-109.11
-81.29
-54.70
-32.22
-15.62
-5.42
-1.10
-1.52
-5.25
-10.87
-17.03
-22.60
-26.72
-28.97
-29.52
-29.01
-28.29
-28.11
-28.80
-30.38
-32.63
-35.42
-38.83
-43.03
-48.05
-53.63
-59.26
-64.61
-69.82
-75.71
-83.46
-94.05
-107.51
-122.72
-137.44
-149.20
-156.01
-157.06
-152.78
-144.42
-133.35
-120.65
-106.95
-92.59
-78.03
-63.77
-50.28
-37.70
-25.76
-13.96
-2.00
9.94
21.19
30.97
38.85
45.04
50.14
54.79
59.25
63.22
66.15
67.59
67.44
66.00
63.75
61.15
58.55
56.19
54.20
52.52
50.80
48.45
44.79
39.40
32.35
24.23
15.93
8.29
1.82
-3.32
-7.18
-9.91
-11.65
-12.57
-12.94
-13.12
-13.47
-14.25
-15.53
-17.20
-19.09
-21.10
-23.18
-25.35
-27.63
-29.96
-32.21
-34.26
-36.07
-37.71
-39.34
-41.14
-43.21
-45.59
-48.23
-51.06
-54.03
-57.12
-60.33
-63.68
-67.28
-71.32
-76.07
-81.71
-88.08
-94.52
-99.80
-102.42
-101.05
-94.99
-84.44
-70.44
-54.56
-38.40
-23.16
-9.40
2.88
14.10
24.73
35.04
45.04
54.45
62.98
70.45
76.96
82.83
88.44
94.06
99.76
105.45
111.04
116.54
121.95
127.21
132.04
135.99
138.75
140.35
141.26
142.07
143.09
143.99
143.85
141.52
136.28
128.22
118.18
107.40
96.89
87.18
78.30
70.07
62.38
55.26
48.86
43.20
38.21
33.73
29.63
25.89
22.46
19.26
16.09
12.71
8.91
4.66
0.02
-4.84
-9.82
-14.82
-19.75
-24.53
-29.05
-33.21
-37.02
-40.61
-44.23
-48.27
-53.18
-59.36
-66.94
-75.57
-84.27
-91.56
-95.75
-95.52
-90.34
-80.70
-67.92
-53.77
-39.84
-27.16
-16.09
-6.43
2.24
10.30
17.87
24.84
30.95
35.95
39.72
42.40
44.33
46.01
47.84
50.09
52.74
55.57
58.32
60.85
63.18
65.42
67.52
69.18
69.92
69.31
67.29
64.24
60.89
57.98
55.89
54.49
53.26
51.65
49.32
46.36
43.16
40.17
37.60
35.36
33.06
30.31
26.91
22.92
18.69
14.64
11.06
7.99
5.19
2.26
-1.25
-5.66
-11.06
-17.27
-23.91
-30.48
-36.51
-41.69
-46.04
-49.88
-53.88
-58.83
-65.32
-73.42
-82.53
-91.32
-98.10
-101.31
-99.93
-93.80
-83.61
-70.59
-56.22
-41.78
-28.16
-15.83
-4.88
4.75
13.16
20.34
26.20
30.65
33.75
35.76
37.08
38.14
39.28
40.68
42.41
44.50
47.05
50.14
53.74
57.63
61.33
64.25
65.90
66.05
64.82
62.65
60.10
57.56
55.18
52.81
50.12
46.92
43.23
39.46
36.23
34.14
33.56
34.45
36.36
38.51
39.95
39.77
37.28
32.28
25.25
17.23
9.64
3.84
0.72
0.51
2.72
6.31
9.97
12.34
12.35
9.45
3.78
-3.85
-12.31
-20.71
-28.80
-36.97
-45.90
-55.92
-66.72
-77.37
-86.80
-94.11
-98.74
-100.27
-98.21
-92.06
-81.66
-67.58
-51.32
-35.11
-21.16
-11.03
-4.93
-1.56
1.50
6.91
16.30
29.26
43.20
54.21
58.67
54.80
43.32
26.66
7.57
-12.30
-32.58
-53.41
-74.27
-93.39
-108.34
-117.28
-120.12
-118.52
-114.97
-111.30
-107.80
-103.24
-95.97
-84.97
-70.63
-54.55
-38.69
-24.44
-12.06
-0.85
10.29
22.08
34.42
46.46
57.13
65.75
72.35
77.52
81.96
86.03
89.49
91.62
91.65
89.25
84.70
78.79
72.59
67.10
63.09
60.89
60.29
60.53
60.42
58.77
54.92
49.27
43.31
39.18
38.75
42.83
50.90
61.47
72.77
83.25
91.49
95.97
95.24
88.49
76.44
61.46
46.58
33.81
22.69
10.33
-7.05
-31.61
-62.27
-94.94
-124.41
-146.84
-161.28
-169.40
-173.92
-176.78
-178.46
-178.34
-175.82
-171.03
-164.97
-158.84
-153.28
-148.03
-142.09
-134.41
-124.45
-112.54
-99.70
-87.26
-76.28
-67.27
-60.10
-54.17
-48.71
-43.05
-36.83
-30.16
-23.53
-17.62
-12.98
-9.72
-7.48
-5.57
-3.32
-0.41
2.96
6.24
8.74
10.06
10.17
9.42
8.21
6.76
5.01
2.81
0.12
-2.70
-4.83
-5.18
-2.75
3.13
12.49
24.79
38.96
53.64
67.40
79.22
88.69
96.19
102.83
109.98
118.73
129.43
141.53
153.72
164.42
172.32
176.67
177.68
176.70
176.31
179.85
190.14
207.81
230.03
250.50
261.16
254.91
228.34
183.00
124.72
61.39
0.50
-52.50
-94.54
-124.30
-141.42
-146.41
-140.90
-128.08
-112.43
-98.65
-90.25
-88.42
-91.77
-97.23
-101.72
-103.59
-103.21
-102.33
-102.71
-104.97
-108.39
-111.38
-112.32
-109.97
-103.07
-89.94
-68.61
-38.20
-0.47
39.27
73.35
94.58
99.48
89.90
72.00
53.07
38.10
28.08
20.75
13.18
4.24
-4.43
-9.40
-7.54
2.34
19.00
39.67
61.32
81.51
98.60
111.45
119.24
121.48
118.38
111.05
101.46
91.94
84.74
81.59
83.36
89.72
98.93
107.76
112.08
107.81
92.36
65.60
30.24
-9.14
-47.55
-81.15
-108.02
-128.01
-141.85
-150.30
-153.64
-151.89
-145.27
-134.54
-121.19
-107.07
-93.92
-83.00
-74.91
-69.59
-66.48
-64.77
-63.55
-62.06
-59.88
-56.92
-53.30
-49.13
-44.33
-38.60
-31.48
-22.56
-11.59
1.35
15.81
30.91
45.42
58.14
68.21
75.51
80.73
85.22
90.41
97.26
105.65
114.27
120.81
122.55
117.31
104.35
85.11
63.10
43.09
29.42
24.30
26.70
32.64
36.56
33.45
20.63
-1.56
-30.17
-60.97
-89.93
-113.98
-131.20
-140.56
-141.53
-134.08
-118.85
-97.27
-71.62
-44.87
-20.31
-0.96
11.17
15.82
14.93
12.33
12.71
19.88
35.26
56.96
80.39
99.76
110.10
108.83
96.16
74.59
47.88
19.98
-5.72
-26.91
-42.67
-53.60
-61.70
-69.67
-79.88
-93.24
-108.70
-123.47
-134.08
-137.71
-133.22
-121.33
-104.11
-84.08
-63.46
-43.86
-26.40
-11.97
-1.41
4.59
5.78
2.79
-2.93
-9.28
-14.25
-16.46
-15.57
-12.20
-7.45
-2.28
2.83
7.83
12.83
17.62
21.60
23.89
23.70
20.69
15.07
7.61
-0.61
-8.39
-14.66
-18.66
-20.06
-19.00
-16.10
-12.26
-8.45
-5.44
-3.57
-2.65
-2.01
-0.71
2.08
6.80
13.30
21.01
29.01
36.42
42.39
46.26
47.57
46.24
42.65
37.76
32.82
28.98
26.79
26.03
25.86
25.38
24.15
22.44
21.10
21.07
22.92
26.54
31.19
35.78
39.28
40.99
40.67
38.49
34.91
30.62
26.40
23.11
21.44
21.82
24.14
27.74
31.49
34.19
35.04
33.88
31.32
28.46
26.51
26.32
28.08
31.27
34.81
37.44
38.16
36.58
33.09
28.56
23.91
19.43
14.38
7.09
-4.42
-21.53
-44.20
-70.74
-98.11
-122.79
-141.71
-152.92
-155.91
-151.43
-141.09
-126.95
-111.06
-95.23
-80.82
-68.59
-58.69
-50.64
-43.49
-36.17
-27.81
-18.12
-7.54
2.89
12.02
19.04
23.80
26.81
28.77
30.23
31.36
32.23
33.23
35.20
39.26
46.15
55.57
65.84
74.07
76.83
70.88
53.97
25.50
-13.07
-58.04
-103.82
-144.00
-172.79
-186.63
-184.97
-170.13
-146.22
-117.72
-88.31
-60.50
-35.81
-15.19
0.70
11.57
17.59
19.39
17.72
13.11
5.65
-4.70
-17.58
-31.79
-45.25
-55.50
-60.50
-59.32
-52.32
-40.90
-26.83
-11.71
3.33
17.57
30.57
42.06
52.09
61.15
70.26
80.55
92.56
105.36
116.19
120.97
115.78
98.71
71.01
37.10
3.05
-25.68
-46.05
-58.17
-64.64
-69.04
-74.40
-82.35
-93.06
-105.79
-119.44
-132.87
-144.85
-154.00
-158.82
-157.99
-150.91
-138.06
-121.29
-103.30
-86.90
-74.16
-65.69
-60.77
-57.83
-55.31
-52.36
-48.94
-45.70
-43.45
-42.77
-43.79
-46.29
-49.88
-54.15
-58.73
-63.19
-66.93
-69.22
-69.30
-66.67
-61.28
-53.56
-44.23
-34.15
-23.99
-14.12
-4.71
4.23
12.62
20.30
27.03
32.58
36.89
40.04
42.27
43.87
45.06
45.98
46.68
47.23
47.85
48.79
50.32
52.42
54.76
56.71
57.59
56.91
54.62
51.07
46.87
42.67
38.83
35.45
32.46
29.73
27.23
25.00
23.16
21.75
20.70
19.80
18.72
17.15
14.87
11.92
8.67
5.63
3.21
1.43
-0.29
-3.03
-7.88
-15.48
-25.55
-36.88
-47.63
-55.92
-60.37
-60.40
-56.23
-48.65
-38.70
-27.40
-15.68
-4.21
6.51
16.24
24.90
32.47
38.91
44.03
47.57
49.29
49.15
47.49
44.99
42.56
41.06
41.06
42.64
45.38
48.54
51.30
53.11
53.80
53.60
52.92
52.15
51.43
50.66
49.67
48.25
46.37
44.10
41.53
38.77
35.89
32.93
29.98
27.13
24.44
21.93
19.60
17.46
15.47
13.56
11.50
8.90
5.24
0.04
-6.97
-15.65
-25.36
-34.95
-43.00
-48.05
-49.00
-45.41
-37.72
-27.13
-15.18
-3.34
7.43
16.84
25.03
32.22
38.42
43.38
46.70
48.17
48.00
46.81
45.43
44.58
44.61
45.45
46.67
47.82
48.61
49.06
49.42
49.94
50.70
51.51
51.94
51.62
50.40
48.47
46.22
44.06
42.23
40.68
39.17
37.46
35.42
33.08
30.61
28.18
25.89
23.71
21.47
18.80
15.28
10.48
4.21
-3.43
-11.97
-20.70
-28.91
-36.11
-42.19
-47.43
-52.37
-57.59
-63.43
-69.80
-76.02
-80.94
-83.16
-81.50
-75.45
-65.44
-52.77
-39.21
-26.44
-15.56
-6.88
-0.07
5.47
10.27
14.60
18.49
21.87
24.78
27.36
29.85
32.47
35.26
38.06
40.67
42.89
44.72
46.29
47.84
49.47
51.07
52.23
52.48
51.49
49.26
46.14
42.67
39.39
36.52
34.04
31.69
29.20
26.49
23.66
20.94
18.53
16.51
14.81
13.27
11.67
9.86
7.66
4.96
1.73
-1.92
-5.73
-9.44
-12.82
-15.83
-18.61
-21.44
-24.48
-27.78
-31.20
-34.55
-37.83
-41.24
-45.19
-50.14
-56.27
-63.28
-70.24
-75.76
-78.35
-76.88
-71.00
-61.29
-49.04
-35.83
-23.03
-11.54
-1.73
6.43
13.08
18.38
22.46
25.49
27.72
29.43
30.84
32.13
33.34
34.48
35.59
36.76
38.09
39.70
41.61
43.76
45.98
48.05
49.69
50.61
50.61
49.63
47.79
45.36
42.64
39.87
37.08
34.13
30.83
27.08
23.03
19.07
15.75
13.47
12.37
12.22
12.51
12.73
12.59
12.11
11.49
10.98
10.67
10.40
9.83
8.66
6.74
4.15
1.20
-1.72
-4.26
-6.26
-7.80
-9.12
-10.57
-12.44
-14.88
-17.86
-21.20
-24.66
-28.01
-31.14
-34.01
-36.69
-39.37
-42.36
-46.04
-50.78
-56.75
-63.70
-70.76
-76.61
-79.66
-78.65
-73.04
-63.29
-50.70
-37.06
-24.05
-12.80
-3.79
3.14
8.47
12.75
16.42
19.76
22.91
25.86
28.54
30.86
32.75
34.21
35.35
36.39
37.52
38.83
40.29
41.76
43.05
44.00
44.50
44.48
43.91
42.80
41.21
39.30
37.26
35.30
33.55
32.01
30.54
28.96
27.12
24.98
22.67
20.39
18.37
16.74
15.54
14.65
13.91
13.11
12.08
10.75
9.04
6.97
4.56
1.95
-0.70
-3.14
-5.17
-6.71
-7.84
-8.86
-10.16
-12.08
-14.70
-17.85
-21.11
-24.02
-26.34
-28.14
-29.82
-31.88
-34.74
-38.55
-43.08
-47.85
-52.13
-55.17
-56.24
-54.81
-50.67
-44.03
-35.55
-26.18
-17.03
-9.02
-2.78
1.58
4.26
5.73
6.48
6.85
7.00
6.92
6.63
6.19
5.88
6.00
6.85
8.51
10.91
13.78
16.80
19.69
22.23
24.27
25.68
26.39
26.37
25.67
24.42
22.79
20.97
19.10
17.22
15.32
13.35
11.26
9.11
7.04
5.24
3.88
3.02
2.53
2.12
1.46
0.31
-1.42
-3.57
-5.87
-8.03
-9.86
-11.32
-12.51
-13.57
-14.64
-15.73
-16.78
-17.70
-18.45
-19.10
-19.87
-21.03
-22.89
-25.68
-29.49
-34.29
-39.80
-45.40
-50.12
-52.82
-52.50
-48.62
-41.44
-31.83
-21.03
-10.14
0.16
9.69
18.47
26.42
33.18
38.04
40.22
39.14
34.58
26.81
16.52
4.73
-7.41
-18.79
-28.58
-36.28
-41.80
-45.34
-47.25
-47.89
-47.53
-46.41
-44.71
-42.58
-40.10
-37.28
-34.10
-30.58
-26.91
-23.53
-21.02
-19.87
-20.21
-21.62
-23.15
-23.55
-21.71
-17.08
-9.91
-1.27
7.34
14.56
19.66
22.91
25.40
28.59
33.58
40.62
48.98
57.24
63.98
68.34
70.39
71.17
72.37
75.73
82.34
91.97
102.74
111.28
113.80
107.43
91.67
68.95
44.19
23.22
10.83
9.08
16.60
29.12
40.98
46.88
43.41
29.78
7.71
-19.38
-47.37
-72.45
-91.82
-103.98
-108.78
-107.15
-100.70
-91.27
-80.42
-69.28
-58.57
-48.86
-40.76
-34.93
-31.73
-30.94
-31.60
-32.31
-31.84
-29.61
-25.84
-21.36
-17.03
-13.41
-10.51
-7.95
-5.15
-1.45
3.88
11.51
21.90
34.88
49.35
63.28
74.28
80.50
81.44
78.11
72.62
67.04
62.43
58.33
53.09
44.84
32.47
16.35
-1.79
-19.46
-34.27
-44.73
-50.55
-52.54
-52.07
-50.39
-47.99
-44.52
-39.08
-30.99
-20.49
-8.83
2.25
11.51
19.19
27.19
38.31
54.73
76.63
101.51
124.71
140.86
145.79
137.80
118.25
90.90
60.60
31.85
7.78
-10.28
-22.58
-30.63
-36.82
-43.92
-54.36
-69.37
-88.14
-107.81
-124.30
-133.77
-134.13
-125.58
-110.12
-90.43
-68.70
-46.21
-23.79
-2.57
15.62
28.60
34.76
33.87
27.34
17.68
7.57
-1.12
-7.65
-12.33
-15.77
-18.28
-19.57
-18.95
-15.83
-10.21
-2.86
5.01
12.24
18.15
22.66
26.10
28.83
30.93
32.11
31.91
30.01
26.54
22.25
18.28
15.83
15.56
17.34
20.13
22.37
22.55
19.75
14.03
6.26
-2.17
-9.88
-15.84
-19.53
-20.89
-20.19
-17.91
-14.70
-11.31
-8.39
-6.37
-5.27
-4.69
-3.98
-2.48
0.10
3.57
7.23
10.14
11.41
10.49
7.31
2.29
-3.81
-10.08
-15.67
-19.97
-22.73
-24.10
-24.46
-24.38
-24.28
-24.35
-24.49
-24.40
-23.84
-22.83
-21.69
-20.94
-21.06
-22.27
-24.44
-27.22
-30.19
-33.03
-35.58
-37.79
-39.66
-41.19
-42.37
-43.26
-43.94
-44.45
-44.66
-44.21
-42.62
-39.49
-34.69
-28.51
-21.62
-14.77
-8.63
-3.52
0.58
3.92
6.88
9.75
12.70
15.73
18.71
21.45
23.80
25.79
27.67
29.88
32.79
36.59
41.07
45.79
50.23
54.08
57.36
60.38
63.52
66.98
70.64
74.13
77.02
79.09
80.46
81.65
83.42
86.65
92.18
100.61
112.11
126.02
140.66
153.37
161.12
161.44
153.47
138.46
119.49
100.33
84.04
71.77
62.37
52.96
39.97
20.46
-6.94
-41.59
-81.03
-121.65
-159.48
-190.99
-213.73
-226.46
-229.27
-223.24
-210.34
-193.06
-174.05
-155.74
-139.77
-126.83
-116.65
-108.38
-101.08
-93.93
-86.49
-78.49
-69.79
-60.34
-50.20
-39.68
-29.28
-19.60
-11.11
-4.13
1.33
5.44
8.40
10.29
10.86
9.40
4.87
-3.88
-17.71
-36.74
-60.12
-85.98
-111.63
-134.15
-150.62
-158.13
-154.76
-140.08
-115.09
-82.15
-44.62
-6.11
29.93
60.85
85.41
103.05
113.65
117.60
115.81
109.68
100.90
90.62
79.62
69.01
59.04
49.02
38.28
26.39
13.26
-0.83
-16.60
-34.42
-51.77
-66.78
-79.42
-89.95
-98.71
-105.68
-109.96
-112.50
-113.45
-107.82
-93.23
-72.38
-49.34
-28.28
-11.89
-0.30
4.67
3.22
4.46
14.35
31.66
53.12
73.96
88.44
90.61
70.03
19.58
-52.16
-134.79
-222.01
-308.07
-390.55
-471.75
-522.84
-526.67
-537.05
-576.37
-624.30
-665.96
-688.08
-682.28
-646.54
-584.72
-509.77
-434.59
-358.62
-280.89
-204.60
-131.73
-63.98
-3.09
49.95
91.07
118.04
138.36
157.60
175.68
192.12
206.45
218.76
229.94
238.77
244.56
252.08
264.65
281.97
303.38
328.07
355.35
384.78
414.54
442.44
468.03
489.15
501.64
502.10
489.16
464.24
431.10
394.14
357.29
323.85
294.97
269.94
247.50
226.45
205.80
184.61
161.92
137.00
109.75
81.09
53.01
28.16
8.95
-3.13
-8.10
-7.38
-3.28
1.78
6.06
8.78
10.19
10.99
11.86
13.00
14.03
14.36
13.52
11.51
8.80
6.03
3.66
1.81
0.25
-1.30
-2.92
-4.39
-5.31
-5.35
-4.50
-3.19
-2.14
-2.00
-3.10
-5.23
-7.67
-9.52
-10.06
-9.06
-6.87
-4.30
-2.23
-1.34
-1.84
-3.53
-5.99
-8.81
-11.81
-14.95
-18.33
-21.91
-25.49
-28.67
-31.04
-32.36
-32.71
-32.56
-32.70
-33.96
-37.05
-42.23
-49.18
-57.01
-64.45
-70.08
-72.70
-71.59
-66.64
-58.39
-47.78
-36.01
-24.19
-13.20
-3.58
4.53
11.29
17.05
22.14
26.81
31.04
34.67
37.51
39.48
40.76
41.66
42.52
43.56
44.81
46.14
47.39
48.49
49.42
50.22
50.79
50.93
50.36
48.86
46.37
43.07
39.34
35.62
32.28
29.43
26.93
24.44
21.54
17.96
13.65
8.81
3.80
-0.98
-5.25
-8.96
-12.25
-15.45
-18.97
-23.24
-28.55
-34.96
-42.10
-49.16
-54.96
-58.26
-58.13
-54.24
-47.04
-37.57
-27.10
-16.78
-7.32
1.04
8.36
14.84
20.60
25.62
29.81
33.02
35.20
36.38
36.76
36.60
36.21
35.89
35.84
36.17
36.85
37.76
38.71
39.47
39.85
39.67
38.91
37.65
36.02
34.16
32.14
29.94
27.47
24.71
21.68
18.53
15.42
12.44
9.58
6.71
3.65
0.31
-3.29
-7.02
-10.71
-14.23
-17.59
-20.90
-24.28
-27.92
-31.98
-36.62
-41.98
-48.07
-54.62
-60.86
-65.64
-67.69
-66.07
-60.59
-51.86
-41.19
-30.03
-19.59
-10.53
-2.99
3.28
8.64
13.37
17.61
21.29
24.28
26.48
27.86
28.62
29.07
29.57
30.37
31.52
32.92
34.34
35.59
36.55
37.18
37.46
37.33
36.66
35.37
33.43
31.02
28.41
25.92
23.77
22.02
20.49
18.94
17.13
15.00
12.61
10.18
7.91
5.86
3.96
1.97
-0.34
-3.19
-6.60
-10.45
-14.43
-18.21
-21.53
-24.32
-26.81
-29.44
-32.77
-37.28
-43.10
-49.95
-57.06
-63.31
-67.47
-68.52
-65.86
-59.61
-50.52
-39.78
-28.71
-18.41
-9.53
-2.25
3.65
8.60
12.98
17.03
20.78
24.10
26.79
28.70
29.81
30.26
30.33
30.32
30.56
31.21
32.30
33.73
35.29
36.74
37.91
38.62
38.75
38.20
36.93
35.00
32.57
29.96
27.46
25.28
23.40
21.61
19.65
17.36
14.79
12.18
9.83
7.93
6.46
5.20
3.91
2.35
0.48
-1.60
-3.73
-5.74
-7.61
-9.45
-11.49
-13.91
-16.81
-20.09
-23.50
-26.71
-29.53
-31.95
-34.22
-36.79
-40.12
-44.50
-49.87
-55.68
-61.00
-64.62
-65.47
-62.91
-56.99
-48.38
-38.21
-27.71
-17.85
-9.26
-2.15
3.56
8.15
11.99
15.41
18.63
21.70
24.49
26.78
28.37
29.20
29.43
29.36
29.34
29.61
30.23
31.10
32.02
32.77
33.19
33.19
32.72
31.84
30.60
29.09
27.46
25.81
24.25
22.80
21.41
20.00
18.52
16.93
15.35
13.88
12.59
11.49
10.49
9.50
8.46
7.38
6.30
5.25
4.19
3.01
1.58
-0.17
-2.22
-4.48
-6.77
-8.96
-10.99
-12.93
-14.90
-17.01
-19.31
-21.72
-24.07
-26.18
-27.94
-29.35
-30.50
-31.62
-33.00
-34.96
-37.76
-41.46
-45.80
-50.12
-53.44
-54.73
-53.18
-48.53
-41.17
-32.06
-22.39
-13.32
-5.62
0.38
4.79
8.04
10.60
12.89
15.08
17.11
18.78
19.93
20.49
20.61
20.57
20.62
20.93
21.49
22.18
22.91
23.65
24.37
25.06
25.62
25.85
25.56
24.67
23.32
21.76
20.31
19.15
18.30
17.61
16.86
15.93
14.75
13.37
11.84
10.25
8.67
7.17
5.83
4.68
3.64
2.55
1.21
-0.52
-2.61
-4.85
-6.95
-8.68
-10.01
-11.06
-12.14
-13.52
-15.37
-17.65
-20.17
-22.71
-25.05
-27.08
-28.80
-30.32
-31.87
-33.77
-36.33
-39.74
-43.81
-47.95
-51.16
-52.37
-50.74
-46.06
-38.80
-29.95
-20.74
-12.24
-5.10
0.47
4.63
7.71
10.07
11.97
13.61
15.06
16.32
17.35
18.09
18.54
18.74
18.77
18.75
18.79
18.99
19.41
20.10
21.01
22.05
22.97
23.51
23.41
22.58
21.08
19.20
17.26
15.56
14.20
13.15
12.25
11.30
10.21
8.97
7.67
6.44
5.37
4.45
3.57
2.59
1.43
0.06
-1.42
-2.88
-4.20
-5.36
-6.43
-7.58
-8.96
-10.70
-12.77
-15.05
-17.36
-19.53
-21.45
-23.15
-24.76
-26.47
-28.50
-31.02
-34.17
-37.98
-42.29
-46.68
-50.47
-52.76
-52.73
-49.86
-44.19
-36.31
-27.27
-18.27
-10.29
-3.92
0.75
4.02
6.40
8.39
10.30
12.22
14.03
15.59
16.77
17.59
18.15
18.59
18.98
19.32
19.63
19.94
20.40
21.10
22.10
23.23
24.18
24.58
24.15
22.85
20.89
18.62
16.40
14.49
12.99
11.88
11.07
10.47
10.00
9.53
9.00
8.31
7.48
6.59
5.78
5.21
4.87
4.64
4.34
3.78
2.84
1.56
0.02
-1.67
-3.39
-5.06
-6.64
-8.13
-9.60
-11.21
-13.14
-15.43
-18.00
-20.55
-22.78
-24.49
-25.74
-26.82
-28.19
-30.30
-33.43
-37.50
-41.99
-46.01
-48.48
-48.46
-45.50
-39.79
-32.14
-23.72
-15.68
-8.81
-3.42
0.62
3.64
6.02
8.06
9.93
11.67
13.26
14.63
15.72
16.57
17.25
17.89
18.56
19.28
19.97
20.57
21.10
21.61
22.21
22.95
23.74
24.37
24.64
24.36
23.49
22.10
20.33
18.37
16.39
14.52
12.82
11.28
9.84
8.44
7.00
5.50
3.97
2.47
1.03
-0.35
-1.70
-3.08
-4.60
-6.36
-8.45
-10.88
-13.56
-16.28
-18.80
-20.92
-22.64
-24.10
-25.61
-27.47
-29.92
-33.07
-36.85
-40.92
-44.69
-47.34
-48.00
-46.06
-41.39
-34.47
-26.26
-17.89
-10.33
-4.08
0.75
4.42
7.30
9.66
11.67
13.29
14.42
14.97
15.01
14.72
14.46
14.52
15.08
16.10
17.33
18.53
19.51
20.27
20.92
21.61
22.33
22.98
23.35
23.24
22.58
21.46
20.09
18.76
17.66
16.87
16.29
15.69
14.83
13.51
11.69
9.50
7.13
4.81
2.65
0.64
-1.33
-3.41
-5.70
-8.24
-10.97
-13.85
-16.81
-19.75
-22.55
-25.09
-27.30
-29.26
-31.23
-33.61
-36.75
-40.75
-45.31
-49.71
-52.95
-54.03
-52.26
-47.53
-40.32
-31.56
-22.35
-13.65
-6.11
0.05
4.94
8.92
12.41
15.79
19.30
22.91
26.43
29.47
31.66
32.83
33.04
32.59
31.86
31.16
30.61
30.09
29.35
28.11
26.11
23.26
19.58
15.29
10.72
6.25
2.26
-1.04
-3.58
-5.47
-6.89
-7.99
-8.83
-9.42
-9.73
-9.81
-9.76
-9.73
-9.78
-9.88
-9.90
-9.72
-9.31
-8.75
-8.25
-7.99
-8.02
-8.22
-8.42
-8.45
-8.34
-8.25
-8.42
-9.06
-10.24
-11.89
-13.82
-15.89
-17.97
-19.96
-21.80
-23.46
-24.99
-26.56
-28.53
-31.26
-35.06
-39.86
-45.15
-49.96
-53.10
-53.54
-50.75
-44.92
-36.88
-27.84
-18.93
-10.93
-4.15
1.47
6.14
10.10
13.49
16.43
19.03
21.35
23.41
25.15
26.48
27.40
28.01
28.53
29.27
30.42
32.05
34.03
36.08
37.93
39.35
40.25
40.60
40.47
39.91
38.96
37.68
36.11
34.34
32.51
30.73
29.08
27.62
26.31
25.05
23.73
22.27
20.65
18.93
17.23
15.68
14.31
13.06
11.81
10.40
8.80
7.04
5.27
3.63
2.18
0.87
-0.42
-1.83
-3.46
-5.38
-7.64
-10.22
-13.08
-16.14
-19.29
-22.45
-25.64
-28.98
-32.71
-37.01
-41.90
-47.08
-51.91
-55.47
-56.82
-55.28
-50.68
-43.47
-34.59
-25.23
-16.47
-9.05
-3.20
1.29
4.86
7.99
11.04
14.10
17.05
19.66
21.70
23.12
24.01
24.62
25.17
25.81
26.58
27.41
28.26
29.12
29.97
30.80
31.51
31.95
31.93
31.37
30.28
28.79
27.08
25.33
23.64
22.06
20.53
19.00
17.44
15.86
14.33
12.93
11.76
10.81
9.98
9.14
8.13
6.84
5.24
3.43
1.53
-0.27
-1.86
-3.21
-4.42
-5.71
-7.30
-9.37
-11.92
-14.81
-17.71
-20.32
-22.43
-24.08
-25.50
-27.12
-29.35
-32.46
-36.43
-40.83
-44.86
-47.55
-48.03
-45.81
-40.98
-34.20
-26.48
-18.88
-12.17
-6.70
-2.42
0.98
3.86
6.52
9.12
11.67
14.07
16.11
17.62
18.51
18.81
18.71
18.49
18.44
18.75
19.52
20.70
22.13
23.58
24.84
25.73
26.15
26.08
25.51
24.51
23.17
21.68
20.22
18.94
17.88
16.97
16.06
14.98
13.72
12.36
11.07
10.01
9.19
8.53
7.92
7.23
6.41
5.43
4.32
3.07
1.70
0.25
-1.20
-2.59
-3.88
-5.15
-6.50
-8.08
-9.99
-12.22
-14.69
-17.20
-19.58
-21.74
-23.63
-25.34
-27.00
-28.79
-30.89
-33.53
-36.86
-40.90
-45.38
-49.67
-52.88
-54.03
-52.43
-47.91
-41.02
-32.78
-24.41
-16.88
-10.71
-5.89
-2.09
1.11
4.04
6.84
9.53
12.03
14.28
16.24
17.83
19.04
19.90
20.47
20.90
21.35
21.95
22.76
23.72
24.73
25.66
26.38
26.76
26.70
26.16
25.18
23.84
22.31
20.74
19.23
17.80
16.44
15.13
13.88
12.75
11.78
10.98
10.25
9.53
8.77
7.99
7.23
6.50
5.81
5.04
4.10
2.91
1.45
-0.22
-2.01
-3.80
-5.46
-6.89
-8.08
-9.11
-10.19
-11.52
-13.27
-15.48
-17.99
-20.58
-22.97
-25.02
-26.73
-28.25
-29.87
-31.97
-34.85
-38.56
-42.82
-46.91
-49.84
-50.65
-48.68
-43.91
-36.93
-28.76
-20.49
-13.00
-6.80
-1.96
1.67
4.40
6.60
8.61
10.69
12.91
15.13
17.09
18.53
19.39
19.85
20.25
20.92
22.02
23.46
25.00
26.38
27.42
28.07
28.30
28.08
27.38
26.22
24.76
23.22
21.80
20.62
19.66
18.81
17.93
17.00
16.06
15.18
14.41
13.73
13.07
12.36
11.54
10.62
9.61
8.52
7.38
6.16
4.87
3.52
2.14
0.77
-0.54
-1.78
-2.97
-4.23
-5.65
-7.33
-9.27
-11.41
-13.67
-15.94
-18.20
-20.43
-22.60
-24.75
-26.92
-29.28
-32.09
-35.54
-39.62
-43.92
-47.66
-49.87
-49.76
-47.00
-41.85
-35.07
-27.66
-20.52
-14.30
-9.24
-5.35
-2.40
-0.09
1.87
3.70
5.51
7.23
8.74
9.94
10.79
11.41
11.95
12.59
13.41
14.42
15.58
16.81
18.05
19.22
20.19
20.86
21.11
20.95
20.49
19.87
19.23
18.62
18.03
17.42
16.79
16.15
15.53
14.93
14.28
13.58
12.81
12.04
11.33
10.66
9.95
9.03
7.78
6.16
4.26
2.24
0.28
-1.53
-3.18
-4.71
-6.16
-7.59
-9.07
-10.70
-12.55
-14.64
-16.91
-19.24
-21.50
-23.62
-25.61
-27.59
-29.75
-32.30
-35.41
-39.10
-43.12
-46.96
-49.81
-50.83
-49.39
-45.35
-39.14
-31.68
-24.07
-17.21
-11.64
-7.41
-4.21
-1.60
0.88
3.51
6.39
9.41
12.33
14.88
16.86
18.23
19.15
19.87
20.63
21.58
22.71
23.95
25.18
26.33
27.36
28.19
28.74
28.87
28.51
27.67
26.47
25.09
23.71
22.48
21.42
20.52
19.71
18.93
18.11
17.29
16.51
15.86
15.43
15.18
15.00
14.67
13.97
12.82
11.26
9.49
7.77
6.29
5.14
4.28
3.61
2.98
2.25
1.29
0.08
-1.35
-2.94
-4.61
-6.28
-7.91
-9.52
-11.17
-12.93
-14.86
-17.00
-19.28
-21.62
-23.90
-26.05
-28.14
-30.34
-32.95
-36.18
-40.12
-44.49
-48.70
-51.89
-53.19
-52.03
-48.25
-42.25
-34.85
-27.02
-19.68
-13.42
-8.46
-4.68
-1.71
0.85
3.35
5.97
8.71
11.40
13.83
15.81
17.32
18.45
19.41
20.43
21.65
23.09
24.67
26.20
27.45
28.26
28.55
28.39
27.89
27.19
26.36
25.42
24.35
23.21
22.09
21.08
20.18
19.29
18.28
17.04
15.63
14.20
12.94
11.91
11.04
10.18
9.16
7.91
6.47
4.97
3.50
2.14
0.88
-0.32
-1.51
-2.72
-3.93
-5.13
-6.29
-7.46
-8.77
-10.34
-12.25
-14.47
-16.80
-19.05
-21.06
-22.82
-24.49
-26.30
-28.52
-31.37
-34.99
-39.39
-44.31
-49.16
-52.99
-54.79
-53.77
-49.72
-43.19
-35.27
-27.25
-20.16
-14.52
-10.25
-6.93
-4.04
-1.22
1.73
4.74
7.67
10.35
12.65
14.57
16.20
17.70
19.21
20.79
22.40
23.94
25.30
26.47
27.47
28.33
29.04
29.47
29.44
28.85
27.69
26.14
24.42
22.81
21.49
20.54
19.90
19.41
18.90
18.27
17.49
16.62
15.75
14.95
14.23
13.49
12.61
11.50
10.12
8.53
6.84
5.14
3.54
2.07
0.72
-0.57
-1.87
-3.26
-4.79
-6.46
-8.25
-10.12
-12.04
-13.99
-15.99
-18.04
-20.09
-22.09
-23.97
-25.77
-27.63
-29.84
-32.69
-36.37
-40.74
-45.35
-49.33
-51.70
-51.59
-48.56
-42.70
-34.65
-25.39
-15.99
-7.42
-0.26
5.23
9.25
12.34
15.24
18.67
23.03
28.25
33.78
38.90
43.05
46.11
48.50
50.97
54.26
58.78
64.47
70.87
77.36
83.48
89.08
94.42
99.92
106.00
112.69
119.72
126.60
132.82
138.03
141.89
143.88
143.37
140.17
135.30
131.32
131.71
139.41
155.31
177.48
201.89
224.02
240.81
251.39
256.73
258.39
257.56
254.87
250.99
247.17
245.12
246.11
249.83
254.06
255.35
250.32
237.04
215.70
188.59
159.45
132.35
110.67
96.22
88.89
86.89
87.38
87.51
85.14
79.07
68.94
54.69
36.46
14.70
-9.55
-34.52
-58.05
-78.32
-94.56
-107.35
-118.22
-128.94
-140.73
-153.83
-167.57
-180.88
-192.97
-203.75
-213.96
-224.80
-237.35
-252.22
-269.43
-288.62
-309.22
-330.36
-350.60
-367.88
-379.81
-384.78
-382.24
-372.88
-357.99
-338.54
-314.47
-285.09
-249.82
-209.44
-167.24
-128.27
-97.54
-78.13
-70.14
-71.00
-77.42
-86.74
-97.95
-112.21
-130.78
-153.17
-176.47
-196.34
-208.55
-211.48
-205.87
-194.04
-180.95
-170.74
-165.22
-163.84
-164.90
-165.89
-166.47
-166.50
-165.72
-168.44
-178.44
-196.16
-217.45
-235.77
-243.83
-241.69
-233.67
-226.27
-232.71
-261.85
-312.49
-373.22
-428.43
-462.30
-470.95
-455.98
-421.27
-381.02
-349.19
-334.29
-337.66
-356.25
-381.76
-412.76
-446.59
-420.66
-296.30
-76.17
193.49
454.03
639.80
762.10
839.73
886.69
910.76
912.24
886.52
834.44
764.67
689.66
623.72
569.19
524.43
486.82
446.49
394.39
327.64
250.51
171.07
99.86
38.76
-13.03
-57.09
-99.81
-147.51
-202.83
-264.43
-329.26
-393.10
-456.27
-518.16
-574.94
-621.85
-653.19
-663.79
-651.45
-618.55
-570.66
-516.50
-463.05
-413.70
-369.67
-331.14
-298.09
-270.59
-248.56
-230.92
-216.42
-203.47
-190.79
-178.06
-166.01
-155.95
-148.71
-144.11
-140.69
-136.09
-127.80
-113.86
-93.35
-66.43
-33.97
2.98
43.58
87.34
133.87
182.54
232.13
280.62
325.46
363.93
393.65
413.02
421.37
418.95
406.68
385.89
358.15
325.04
288.15
249.13
209.64
171.29
135.60
103.82
76.88
55.22
38.86
27.43
20.37
17.04
16.89
19.58
24.85
32.75
43.01
54.86
67.15
78.73
88.90
97.99
106.96
116.93
128.96
143.16
158.66
174.07
188.59
202.52
217.53
235.34
256.27
279.25
301.01
317.21
324.34
321.41
310.00
294.16
278.07
264.79
258.65
262.60
277.52
301.34
328.86
351.39
361.26
353.15
326.92
294.05
269.20
263.49
279.49
311.00
344.98
372.56
389.77
398.20
411.10
439.21
484.25
538.11
588.66
623.41
641.81
648.67
649.69
658.74
683.39
721.18
761.86
794.14
807.33
803.98
790.06
705.90
523.27
253.58
-55.47
-349.07
-564.70
-713.80
-814.81
-882.04
-925.40
-945.09
-938.93
-910.31
-868.71
-824.90
-790.33
-764.35
-743.14
-723.45
-695.76
-654.15
-599.66
-539.17
-481.09
-434.37
-398.61
-370.82
-348.33
-324.60
-295.24
-260.19
-222.99
-188.07
-160.41
-139.34
-122.89
-109.55
-96.14
-80.60
-63.07
-45.37
-29.68
-18.31
-10.66
-5.38
-1.24
3.41
9.64
17.40
25.80
33.72
39.98
44.51
47.51
49.17
49.56
48.84
47.20
45.02
42.69
40.42
38.13
35.49
32.10
27.76
22.57
16.82
10.89
4.99
-0.85
-6.68
-12.56
-18.48
-24.40
-30.30
-36.31
-42.63
-49.38
-56.44
-63.31
-69.14
-72.92
-73.72
-71.05
-65.00
-56.27
-45.92
-35.11
-24.75
-15.35
-7.03
0.45
7.41
14.11
20.63
26.85
32.47
37.24
41.01
43.91
46.19
48.16
49.98
51.66
53.11
54.22
55.03
55.62
56.11
56.49
56.63
56.36
55.54
54.13
52.20
49.88
47.30
44.58
41.86
39.25
36.84
34.58
32.35
30.00
27.44
24.74
22.14
19.86
18.03
16.61
15.35
13.96
12.18
9.94
7.25
4.27
1.15
-1.99
-5.08
-8.08
-10.99
-13.84
-16.66
-19.50
-22.39
-25.31
-28.18
-30.90
-33.42
-35.80
-38.29
-41.27
-45.10
-49.90
-55.42
-60.93
-65.44
-67.92
-67.61
-64.24
-58.06
-49.81
-40.45
-30.99
-22.21
-14.57
-8.16
-2.75
2.04
6.53
10.92
15.21
19.27
22.92
26.04
28.54
30.45
31.84
32.86
33.68
34.50
35.49
36.77
38.35
40.19
42.09
43.80
44.99
45.34
44.68
43.03
40.68
38.07
35.64
33.71
32.40
31.61
31.06
30.39
29.25
27.35
24.54
20.88
16.61
12.08
7.68
3.71
0.29
-2.55
-4.86
-6.70
-8.11
-9.17
-10.03
-10.95
-12.17
-13.93
-16.32
-19.28
-22.63
-26.09
-29.33
-32.13
-34.35
-36.09
-37.61
-39.30
-41.54
-44.53
-48.16
-51.94
-55.13
-56.85
-56.41
-53.47
-48.15
-40.99
-32.71
-24.03
-15.50
-7.49
-0.27
5.84
10.48
13.41
14.82
15.37
16.10
17.94
21.18
25.24
28.68
29.83
27.41
21.07
11.59
0.62
-9.68
-17.07
-19.75
-16.77
-8.46
3.40
15.89
25.66
30.04
28.00
20.70
11.25
3.83
2.20
8.28
21.37
38.33
54.75
66.68
71.93
70.59
64.35
55.26
44.81
33.61
22.03
10.80
1.20
-5.49
-8.88
-9.98
-10.87
-13.58
-19.01
-26.52
-34.39
-40.84
-44.94
-46.84
-47.39
-47.36
-46.84
-45.13
-41.27
-34.65
-25.64
-15.80
-7.54
-3.40
-5.22
-13.41
-26.65
-42.09
-55.99
-64.71
-65.75
-58.63
-45.06
-28.45
-12.65
-0.59
6.52
9.12
8.53
5.84
1.41
-5.03
-13.68
-24.01
-34.62
-43.79
-50.22
-53.51
-54.11
-52.78
-50.03
-45.90
-40.16
-32.65
-23.55
-13.48
-3.31
6.09
14.11
20.58
25.79
30.33
34.78
39.43
44.15
48.52
52.04
54.44
55.79
56.39
56.60
56.62
56.55
56.35
56.09
55.83
55.61
55.29
54.55
53.01
50.42
46.82
42.57
38.18
34.15
30.80
28.25
26.43
25.25
24.66
24.58
24.83
25.05
24.82
23.72
21.52
18.21
13.93
8.82
2.94
-3.69
-10.96
-18.49
-25.60
-31.48
-35.35
-36.77
-35.75
-32.72
-28.40
-23.59
-19.00
-15.16
-12.32
-10.48
-9.41
-8.74
-8.10
-7.21
-5.93
-4.27
-2.30
-0.13
2.16
4.45
6.68
8.74
10.55
12.06
13.26
14.20
14.98
15.76
16.68
17.79
18.97
19.92
20.19
19.45
17.64
15.11
12.50
10.51
9.55
9.54
9.88
9.77
8.60
6.25
3.12
-0.16
-2.98
-4.96
-5.83
-5.36
-3.48
-0.66
1.66
1.26
-4.09
-15.50
-31.98
-50.61
-67.61
-79.91
-86.28
-87.46
-85.24
-81.20
-75.93
-69.11
-60.28
-49.61
-38.17
-27.51
-18.96
-13.00
-9.12
-6.26
-3.31
0.34
4.54
8.65
11.90
13.85
14.60
14.74
14.96
15.74
17.09
18.62
19.79
20.20
19.79
18.86
17.85
17.09
16.67
16.42
16.07
15.50
14.77
14.15
13.90
14.11
14.59
14.98
15.00
14.57
13.93
13.42
13.35
13.79
14.47
14.88
14.44
12.71
9.55
5.15
0.03
-5.17
-9.85
-13.64
-16.52
-18.75
-20.70
-22.64
-24.62
-26.35
-27.32
-27.05
-25.24
-21.95
-17.57
-12.71
-7.99
-3.78
-0.20
2.83
5.43
7.50
8.78
8.86
7.51
4.84
1.34
-2.26
-5.21
-7.01
-7.54
-7.00
-5.77
-4.22
-2.51
-0.64
1.51
3.96
6.50
8.76
10.25
10.61
9.72
7.85
5.49
3.23
1.52
0.50
0.02
-0.34
-1.04
-2.41
-4.47
-6.85
-8.86
-9.67
-8.60
-5.40
-0.39
5.62
11.44
15.79
17.48
15.70
10.21
1.53
-9.11
-20.06
-29.65
-36.75
-41.05
-43.13
-44.02
-44.71
-45.68
-46.75
-47.21
-46.26
-43.39
-38.61
-32.45
-25.78
-19.45
-14.01
-9.67
-6.23
-3.33
-0.67
1.90
4.33
6.45
8.09
9.23
9.93
10.39
10.81
11.30
11.78
12.02
11.68
10.54
8.63
6.34
4.38
3.39
3.70
5.08
6.68
7.35
6.11
2.56
-2.82
-8.80
-13.82
-16.59
-16.63
-14.58
-12.04
-10.88
-12.49
-17.03
-23.27
-28.88
-31.27
-28.48
-20.01
-7.16
7.29
19.77
26.97
26.91
19.49
6.69
-7.99
-20.62
-28.35
-30.70
-30.02
-30.63
-36.96
-51.28
-72.18
-94.67
-111.99
-118.32
-111.27
-92.86
-68.44
-44.34
-25.33
-13.04
-6.07
-1.43
3.63
10.35
18.20
25.70
31.61
35.76
39.13
43.08
48.26
54.00
58.52
59.89
57.24
51.44
44.82
40.14
39.36
42.85
49.41
56.95
63.46
67.72
69.38
68.78
66.48
62.95
58.50
53.34
47.65
41.67
35.74
30.23
25.62
22.29
20.42
19.81
19.98
20.42
21.01
22.22
24.98
30.14
37.92
47.54
57.50
66.21
72.67
76.79
79.14
80.38
80.78
80.06
77.64
73.08
66.34
57.71
47.59
36.41
24.69
13.38
4.03
-1.42
-1.19
5.53
18.06
34.22
50.92
65.15
74.85
79.38
79.45
76.47
71.87
66.58
60.87
54.64
47.72
40.20
32.35
24.55
16.98
9.59
2.09
-5.73
-13.85
-21.92
-29.38
-35.69
-40.57
-44.11
-46.67
-48.78
-50.87
-53.18
-55.73
-58.31
-60.68
-62.64
-64.12
-65.23
-66.17
-67.15
-68.21
-69.09
-69.29
-68.24
-65.56
-61.34
-56.20
-51.14
-47.17
-44.81
-43.90
-43.55
-42.59
-40.05
-35.69
-30.09
-24.52
-20.31
-18.29
-18.44
-19.83
-21.09
-21.01
-19.13
-15.81
-12.07
-9.03
-7.42
-7.40
-8.61
-10.25
-10.85
-8.14
0.80
18.53
45.82
80.50
117.52
150.54
174.26
186.51
188.65
184.20
176.51
166.97
154.57
137.06
112.66
81.30
44.79
5.97
-32.30
-67.72
-98.70
-123.93
-142.17
-152.23
-153.49
-146.47
-133.26
-117.33
-102.86
-93.48
-91.10
-95.15
-102.90
-110.49
-114.51
-113.31
-107.32
-98.58
-89.52
-81.86
-76.08
-71.64
-67.65
-63.46
-58.91
-54.15
-49.32
-44.38
-39.23
-34.04
-29.26
-25.51
-23.20
-22.22
-22.00
-21.74
-20.87
-19.28
-17.32
-15.52
-14.37
-14.22
-15.31
-17.74
-21.45
-26.08
-31.01
-35.58
-39.30
-41.98
-43.60
-44.01
-42.90
-39.98
-35.43
-30.22
-25.96
-24.27
-26.05
-30.95
-37.56
-44.06
-49.04
-51.97
-53.02
-52.55
-50.57
-46.33
-38.57
-25.89
-7.36
17.00
45.99
77.33
108.05
135.02
155.57
168.02
171.99
168.39
159.16
146.66
132.99
119.51
106.64
94.10
81.45
68.59
55.91
44.10
33.48
23.71
13.75
2.45
-10.75
-25.30
-39.67
-52.01
-60.99
-66.37
-68.99
-70.20
-71.18
-72.45
-73.83
-74.72
-74.47
-72.57
-68.65
-62.36
-53.42
-41.66
-27.36
-11.25
5.38
20.92
33.79
42.83
47.63
48.74
47.44
45.33
43.60
42.60
41.87
40.64
38.58
36.26
35.03
36.32
40.67
47.32
54.33
59.43
60.92
58.28
52.12
43.75
34.57
25.68
17.79
11.29
6.31
2.76
0.37
-1.27
-2.46
-3.28
-3.44
-2.48
0.09
4.42
10.10
16.23
21.56
24.91
25.54
23.80
21.29
20.68
25.04
36.66
56.07
81.67
110.20
137.75
160.84
177.00
184.65
182.82
170.83
148.42
116.10
75.49
29.21
-19.42
-66.74
-108.97
-142.41
-164.07
-172.66
-169.64
-159.34
-147.86
-140.70
-140.58
-146.44
-154.35
-159.91
-160.53
-156.41
-149.63
-142.21
-134.71
-126.08
-114.96
-101.13
-86.18
-72.72
-62.88
-57.06
-53.69
-50.19
-44.39
-35.57
-24.58
-13.15
-3.02
4.71
9.74
12.31
12.91
12.13
10.66
9.28
8.89
10.28
13.70
18.51
23.06
25.29
23.70
18.29
10.65
3.21
-2.12
-5.06
-7.07
-10.42
-16.70
-25.79
-35.89
-44.50
-49.83
-51.69
-51.41
-50.85
-51.23
-52.37
-52.81
-50.57
-44.05
-32.67
-17.16
0.88
19.58
37.42
53.57
67.80
80.17
90.76
99.42
105.79
109.48
110.18
107.70
101.99
93.12
81.32
67.21
51.96
37.22
24.73
15.61
9.76
5.90
2.27
-2.44
-8.26
-14.06
-18.35
-20.26
-20.22
-19.64
-20.02
-22.02
-25.14
-28.22
-30.26
-31.03
-31.01
-30.84
-30.55
-29.39
-26.10
-19.69
-10.10
1.62
13.51
23.52
30.20
33.07
32.61
29.84
25.88
21.58
17.53
14.00
11.10
8.84
7.18
6.11
5.84
6.83
9.60
14.35
20.59
27.15
32.45
35.12
34.52
30.91
25.16
18.24
10.79
3.00
-5.17
-13.72
-22.35
-30.59
-38.03
-44.58
-50.62
-56.77
-63.61
-71.35
-79.67
-87.87
-95.14
-100.98
-105.32
-108.47
-110.74
-111.98
-111.42
-107.78
-99.71
-86.42
-68.21
-46.56
-23.89
-2.98
13.84
25.28
31.39
33.55
34.14
36.09
42.12
54.29
73.46
99.11
129.29
160.89
190.21
213.62
228.31
232.92
227.65
214.03
194.28
170.75
145.40
119.75
95.06
72.60
53.66
39.40
30.37
26.11
25.18
25.55
25.26
23.17
19.26
14.50
10.16
7.09
5.09
2.99
-0.82
-7.48
-17.05
-28.55
-40.47
-51.60
-61.51
-70.54
-79.28
-88.06
-96.76
-105.05
-112.85
-120.44
-128.27
-136.46
-144.49
-151.29
-155.73
-157.04
-154.94
-149.37
-140.02
-126.18
-106.98
-82.00
-51.77
-17.92
17.20
51.14
81.86
107.97
128.56
143.09
151.36
153.73
151.38
146.13
140.00
134.49
130.04
125.96
121.01
114.12
104.98
94.20
82.94
72.35
63.08
55.25
48.59
42.77
37.56
32.90
28.82
25.34
22.42
20.01
17.98
16.18
14.47
12.74
10.94
9.10
7.28
5.47
3.68
1.88
0.10
-1.57
-3.01
-4.12
-4.92
-5.61
-6.51
-7.91
-10.02
-12.80
-15.91
-18.83
-21.01
-22.07
-21.93
-20.80
-19.09
-17.23
-15.53
-14.14
-13.14
-12.60
-12.58
-13.07
-13.95
-14.97
-15.92
-16.77
-17.66
-18.90
-20.75
-23.21
-26.05
-28.88
-31.32
-33.21
-34.65
-35.94
-37.45
-39.44
-42.02
-45.08
-48.33
-51.21
-53.05
-53.20
-51.24
-47.19
-41.56
-35.17
-28.91
-23.39
-18.83
-15.08
-11.82
-8.76
-5.83
-3.12
-0.79
1.00
2.21
2.87
3.09
3.06
2.96
3.00
3.33
3.97
4.88
5.91
6.90
7.75
8.37
8.68
8.59
8.01
6.93
5.41
3.64
1.85
0.27
-0.96
-1.79
-2.23
-2.33
-2.18
-1.86
-1.53
-1.31
-1.31
-1.50
-1.61
-1.18
0.24
2.98
6.89
11.45
15.83
19.34
21.61
22.76
23.21
23.33
23.24
22.72
21.42
19.12
15.87
12.03
8.01
4.15
0.58
-2.69
-5.71
-8.55
-11.26
-13.89
-16.53
-19.28
-22.17
-25.14
-28.01
-30.44
-31.94
-31.88
-29.76
-25.31
-18.83
-11.12
-3.32
3.42
8.32
11.22
12.47
12.80
12.91
13.29
14.06
15.06
15.96
16.47
16.44
15.84
14.78
13.33
11.61
9.79
8.23
7.44
7.94
9.94
13.12
16.61
19.34
20.46
19.74
17.59
14.83
12.18
9.94
7.94
5.68
2.72
-1.11
-5.58
-10.28
-14.69
-18.43
-21.28
-23.06
-23.76
-23.39
-22.09
-20.18
-18.14
-16.47
-15.60
-15.63
-16.28
-16.99
-17.19
-16.60
-15.39
-14.12
-13.46
-13.85
-15.31
-17.44
-19.70
-21.62
-23.12
-24.43
-26.00
-28.31
-31.72
-36.32
-41.85
-47.67
-52.76
-55.96
-56.33
-53.45
-47.66
-39.89
-31.35
-23.10
-15.84
-9.79
-4.96
-1.24
1.39
2.94
3.57
3.65
3.69
4.21
5.54
7.66
10.25
12.89
15.29
17.40
19.40
21.50
23.82
26.45
29.64
33.87
39.59
46.82
54.68
61.52
65.64
66.16
63.61
59.61
55.95
53.45
51.61
49.02
44.49
37.98
30.80
24.87
21.63
21.26
22.62
23.98
23.93
21.94
18.48
14.57
11.26
9.09
8.07
7.75
7.50
6.85
5.59
3.84
1.88
-0.03
-1.70
-3.14
-4.40
-5.54
-6.52
-7.28
-7.80
-8.28
-9.14
-10.98
-14.34
-19.46
-26.02
-33.12
-39.45
-43.68
-44.91
-43.07
-38.90
-33.74
-29.00
-25.64
-23.90
-23.35
-23.17
-22.60
-21.18
-18.90
-16.06
-13.10
-10.40
-8.23
-6.67
-5.70
-5.26
-5.28
-5.71
-6.56
-7.74
-9.09
-10.32
-11.14
-11.37
-11.05
-10.49
-10.11
-10.31
-11.24
-12.83
-14.83
-16.95
-18.97
-20.82
-22.48
-23.85
-24.80
-25.17
-24.97
-24.39
-23.86
-23.80
-24.52
-25.93
-27.62
-28.97
-29.33
-28.30
-25.80
-22.06
-17.56
-12.79
-8.20
-4.05
-0.40
2.84
5.83
8.65
11.24
13.44
15.05
15.97
16.27
16.18
15.99
15.97
16.29
17.02
18.10
19.38
20.64
21.60
22.06
21.90
21.16
20.06
18.81
17.62
16.57
15.66
14.91
14.34
14.00
13.88
13.84
13.69
13.29
12.60
11.77
11.09
10.79
11.02
11.67
12.51
13.20
13.43
13.06
12.14
10.86
9.52
8.37
7.57
7.17
7.08
7.19
7.37
7.47
7.43
7.29
7.31
7.93
9.65
12.84
17.49
23.15
28.99
34.06
37.64
39.36
39.34
38.02
35.96
33.64
31.35
29.08
26.66
23.79
20.26
15.99
11.03
5.41
-0.87
-7.77
-15.02
-21.85
-27.12
-29.57
-28.46
-23.88
-16.93
-9.30
-2.66
1.95
4.41
5.30
5.54
5.89
6.72
7.96
9.27
10.21
10.41
9.76
8.31
6.39
4.44
2.93
2.14
2.08
2.47
2.88
2.89
2.28
1.03
-0.73
-2.84
-5.27
-7.99
-10.99
-14.13
-17.13
-19.74
-21.77
-23.29
-24.50
-25.71
-27.10
-28.65
-30.19
-31.44
-32.15
-32.20
-31.65
-30.78
-29.93
-29.45
-29.44
-29.80
-30.22
-30.44
-30.32
-30.03
-29.91
-30.26
-31.23
-32.66
-34.21
-35.53
-36.46
-37.09
-37.73
-38.70
-40.15
-41.94
-43.60
-44.47
-43.93
-41.64
-37.65
-32.38
-26.57
-20.93
-16.05
-12.17
-9.26
-7.08
-5.31
-3.71
-2.11
-0.45
1.27
2.97
4.49
5.63
6.21
6.14
5.55
4.76
4.20
4.18
4.83
6.05
7.59
9.17
10.60
11.81
12.76
13.47
13.95
14.28
14.52
14.78
15.05
15.22
15.12
14.59
13.64
12.45
11.32
10.53
10.17
10.12
10.06
9.67
8.70
7.12
5.09
2.86
0.70
-1.25
-2.99
-4.63
-6.34
-8.32
-10.68
-13.38
-16.19
-18.64
-20.09
-19.90
-17.71
-13.55
-7.93
-1.67
4.42
9.78
14.26
18.01
21.29
24.24
26.83
28.87
30.15
30.60
30.27
29.30
27.84
26.08
24.22
22.52
21.24
20.48
20.14
19.91
19.42
18.36
16.65
14.42
12.00
9.73
7.87
6.55
5.69
5.09
4.47
3.53
2.17
0.41
-1.52
-3.39
-4.99
-6.33
-7.54
-8.84
-10.39
-12.22
-14.24
-16.28
-18.20
-19.87
-21.28
-22.55
-23.93
-25.84
-28.66
-32.62
-37.56
-42.87
-47.61
-50.91
-52.23
-51.69
-49.95
-47.91
-46.31
-45.39
-44.87
-44.25
-43.22
-41.89
-40.76
-40.49
-41.46
-43.62
-46.52
-49.39
-51.14
-50.29
-45.07
-33.92
-16.18
7.17
33.55
59.55
82.31
100.68
115.45
128.58
141.69
154.95
166.87
175.17
178.10
175.38
168.32
159.03
149.47
140.72
133.01
126.07
119.74
114.13
109.51
105.93
102.89
99.47
94.59
87.49
78.01
66.53
53.79
40.49
27.12
13.93
1.04
-11.48
-23.50
-34.87
-45.49
-55.20
-63.92
-71.51
-77.89
-83.09
-87.32
-90.91
-94.21
-97.31
-99.95
-101.58
-101.48
-99.12
-94.35
-87.54
-79.45
-71.02
-63.05
-55.97
-49.86
-44.44
-39.37
-34.38
-29.42
-24.63
-20.25
-16.51
-13.47
-11.06
-9.03
-7.07
-4.92
-2.38
0.56
3.82
7.19
10.46
13.40
15.84
17.64
18.72
19.02
18.53
17.28
15.49
13.41
11.40
9.71
8.50
7.70
7.10
6.51
5.84
5.19
4.76
4.77
5.29
6.18
7.16
7.91
8.17
7.78
6.71
5.01
2.77
0.14
-2.68
-5.49
-8.16
-10.62
-12.98
-15.35
-17.79
-20.24
-22.49
-24.32
-25.64
-26.56
-27.37
-28.44
-30.02
-32.13
-34.49
-36.66
-38.08
-38.28
-36.97
-34.10
-29.87
-24.68
-19.03
-13.39
-8.15
-3.50
0.51
3.99
7.08
9.92
12.60
15.14
17.56
19.94
22.46
25.35
28.71
32.42
36.13
39.38
41.76
43.19
43.88
44.19
44.44
44.82
45.33
45.92
46.55
47.16
47.57
47.50
46.59
44.64
41.75
38.35
35.00
32.12
29.78
27.69
25.43
22.64
19.20
15.25
11.04
6.78
2.56
-1.59
-5.64
-9.50
-13.03
-16.09
-18.64
-20.69
-22.27
-23.32
-23.73
-23.34
-22.07
-20.00
-17.42
-14.82
-12.79
-11.94
-12.66
-15.11
-19.08
-24.14
-29.68
-35.18
-40.32
-45.02
-49.37
-53.44
-57.15
-60.18
-62.04
-62.23
-60.41
-56.56
-51.06
-44.65
-38.30
-32.88
-28.85
-26.10
-23.96
-21.63
-18.50
-14.62
-10.56
-7.12
-4.88
-3.88
-3.67
-3.58
-3.16
-2.28
-1.11
0.21
1.62
3.25
5.19
7.31
9.32
10.85
11.67
11.74
11.22
10.34
9.32
8.38
7.66
7.27
7.22
7.38
7.53
7.51
7.26
6.87
6.57
6.50
6.67
6.87
6.87
6.43
5.54
4.37
3.20
2.27
1.68
1.33
1.00
0.44
-0.47
-1.71
-3.14
-4.57
-5.88
-7.09
-8.28
-9.47
-10.60
-11.51
-12.06
-12.20
-12.06
-11.93
-12.14
-12.96
-14.48
-16.57
-18.89
-20.95
-22.27
-22.45
-21.28
-18.83
-15.36
-11.30
-7.15
-3.37
-0.26
2.01
3.47
4.33
4.89
5.43
6.11
6.89
7.60
8.07
8.21
8.10
7.91
7.87
8.11
8.70
9.58
10.65
11.75
12.71
13.40
13.71
13.63
13.24
12.67
12.08
11.53
11.04
10.54
10.01
9.40
8.71
8.00
7.29
6.67
6.13
5.64
5.12
4.48
3.69
2.82
1.99
1.29
0.75
0.31
-0.14
-0.67
-1.27
-1.89
-2.44
-2.93
-3.40
-3.93
-4.56
-5.28
-6.03
-6.85
-7.78
-8.94
-10.40
-12.13
-13.95
-15.54
-16.53
-16.61
-15.61
-13.63
-10.96
-8.03
-5.24
-2.79
-0.69
1.18
2.93
4.56
5.95
6.96
7.53
7.77
7.88
8.06
8.40
8.83
9.19
9.35
9.30
9.14
8.99
8.93
8.94
8.93
8.84
8.64
8.42
8.27
8.24
8.35
8.49
8.58
8.52
8.27
7.87
7.39
6.94
6.58
6.37
6.26
6.19
6.01
5.64
5.03
4.22
3.32
2.43
1.67
1.05
0.52
-0.05
-0.79
-1.77
-2.94
-4.16
-5.21
-5.95
-6.35
-6.51
-6.66
-7.05
-7.88
-9.25
-11.15
-13.40
-15.74
-17.80
-19.15
-19.49
-18.67
-16.81
-14.30
-11.61
-9.19
-7.32
-6.09
-5.41
-5.14
-5.14
-5.33
-5.67
-6.10
-6.55
-6.96
-7.36
-7.85
-8.65
-9.96
-11.87
-14.33
-17.11
-19.93
-22.50
-24.70
-26.58
-28.45
-30.71
-33.79
-37.93
-43.03
-48.71
-54.38
-59.42
-63.44
-66.33
-68.23
-69.36
-69.86
-69.65
-68.34
-65.19
-59.15
-49.05
-33.96
-13.66
10.97
37.87
64.14
86.75
103.41
113.22
116.74
115.70
112.27
108.35
105.07
102.70
100.77
98.51
95.25
90.67
84.84
78.12
70.84
63.16
54.97
46.00
36.09
25.44
14.71
4.87
-3.07
-8.45
-11.19
-11.78
-11.14
-10.18
-9.67
-9.95
-11.00
-12.51
-14.01
-14.92
-14.63
-12.72
-9.05
-3.90
2.01
7.77
12.52
15.73
17.35
17.80
17.71
17.74
18.26
19.31
20.59
21.67
22.20
22.06
21.39
20.48
19.61
18.84
18.08
17.13
15.86
14.33
12.70
11.17
9.89
8.90
8.25
8.02
8.39
9.52
11.40
13.80
16.27
18.29
19.52
19.93
19.86
19.80
20.22
21.27
22.79
24.34
25.45
25.84
25.48
24.58
23.43
22.31
21.34
20.52
19.79
19.01
17.94
16.24
13.51
9.44
4.08
-2.14
-8.46
-14.04
-18.36
-21.46
-23.87
-26.46
-30.00
-34.80
-40.64
-46.83
-52.51
-57.03
-60.16
-62.12
-63.44
-64.60
-65.83
-67.01
-67.72
-67.37
-65.14
-59.86
-50.12
-34.64
-12.98
13.83
43.25
71.87
96.53
115.32
127.84
134.84
137.21
135.42
129.38
119.05
105.09
88.98
72.57
57.22
43.18
29.59
15.15
-1.14
-19.42
-38.98
-58.58
-76.89
-92.63
-104.54
-111.31
-112.04
-106.74
-96.72
-84.39
-72.32
-62.21
-54.33
-47.81
-41.65
-35.60
-30.51
-27.70
-28.04
-31.28
-36.05
-40.66
-43.95
-45.80
-47.01
-48.57
-50.97
-53.79
-55.89
-55.86
-52.62
-45.93
-36.53
-25.79
-15.23
-5.94
1.71
7.95
13.26
17.91
21.83
24.70
26.34
26.88
26.89
27.12
28.20
30.39
33.45
36.74
39.47
41.02
41.11
39.84
37.58
34.82
32.00
29.33
26.81
24.31
21.73
19.09
16.55
14.33
12.54
11.15
9.96
8.72
7.26
5.61
3.97
2.58
1.61
1.05
0.72
0.34
-0.26
-1.13
-2.16
-3.20
-4.10
-4.83
-5.46
-6.09
-6.81
-7.62
-8.50
-9.37
-10.19
-10.95
-11.67
-12.41
-13.22
-14.13
-15.14
-16.21
-17.31
-18.37
-19.39
-20.34
-21.28
-22.31
-23.55
-25.04
-26.70
-28.23
-29.23
-29.30
-28.20
-25.96
-22.91
-19.52
-16.25
-13.36
-10.93
-8.83
-6.92
-5.13
-3.45
-1.88
-0.43
0.94
2.31
3.69
4.98
6.05
6.78
7.16
7.31
7.48
7.95
8.86
10.16
11.63
12.95
13.79
13.95
13.46
12.49
11.35
10.33
9.67
9.44
9.59
9.91
10.15
10.07
9.55
8.66
7.58
6.58
5.87
5.53
5.54
5.78
6.15
6.55
6.91
7.14
7.14
6.77
6.01
4.88
3.53
2.08
0.67
-0.66
-1.91
-3.10
-4.22
-5.25
-6.17
-6.96
-7.65
-8.27
-8.91
-9.67
-10.66
-11.97
-13.61
-15.50
-17.48
-19.28
-20.63
-21.28
-21.03
-19.83
-17.75
-15.03
-11.97
-8.89
-6.06
-3.59
-1.53
0.22
1.76
3.18
4.58
5.97
7.31
8.52
9.50
10.23
10.76
11.21
11.68
12.20
12.75
13.23
13.62
13.93
