1669794704.00
64.000000
-0.00
-0.00
-0.00
-0.00
-0.00
-0.00
-0.00
-0.00
-0.00
-0.00
0.00
0.01
0.01
-0.00
-0.03
-0.05
-0.05
0.00
0.13
0.36
0.66
1.01
1.37
1.72
2.06
2.40
2.79
3.24
3.80
4.42
5.06
5.66
6.20
6.68
7.15
7.68
8.31
9.14
10.09
11.04
11.88
12.56
13.14
13.76
14.65
15.96
17.91
20.32
22.90
25.38
27.58
29.57
31.68
34.32
37.81
42.54
48.15
54.10
59.83
64.97
69.58
74.14
79.34
85.71
93.76
103.00
112.62
121.73
129.77
136.75
143.30
150.75
157.77
166.64
177.95
191.79
206.97
220.57
228.25
225.36
208.53
176.87
132.76
80.05
23.07
-34.94
-92.44
-149.16
-205.23
-260.37
-313.74
-363.87
-409.83
-450.91
-486.50
-515.74
-537.23
-549.22
-549.96
-538.37
-514.21
-478.67
-433.88
-382.45
-327.02
-269.84
-212.63
-156.66
-102.95
-52.37
-5.90
35.58
71.43
101.35
125.50
144.38
158.69
169.15
176.37
180.75
182.57
182.07
179.51
175.23
169.65
163.18
156.15
148.81
141.30
133.69
126.02
118.33
110.69
103.16
95.80
88.68
81.83
75.25
68.95
62.95
57.25
51.86
46.78
42.03
37.59
33.45
29.61
26.07
22.81
19.83
17.11
14.67
12.48
10.54
8.83
7.35
6.07
4.97
4.05
3.27
2.62
2.09
1.65
1.30
1.01
0.79
0.61
0.47
0.37
0.28
0.22
0.18
0.15
0.12
0.11
0.11
0.11
0.11
0.13
0.15
0.17
0.19
0.21
0.21
0.22
0.22
0.22
0.23
0.25
0.27
0.30
0.32
0.33
0.33
0.33
0.33
0.35
0.38
0.44
0.51
0.59
0.66
0.71
0.75
0.80
0.87
1.00
1.17
1.36
1.54
1.68
1.76
1.80
1.84
1.94
2.15
2.46
2.84
3.21
3.49
3.62
3.63
3.59
3.62
3.85
4.31
4.94
5.59
6.09
6.28
6.15
5.79
5.35
5.00
4.82
4.72
4.43
3.56
1.69
-1.51
-5.99
-11.21
-16.15
-19.68
-20.99
-20.00
-17.54
-14.92
-13.28
-13.00
-13.59
-13.99
-13.23
-10.94
-7.41
-3.38
0.47
3.71
6.13
7.62
8.11
7.70
6.78
5.96
5.62
5.70
5.67
4.88
3.17
1.07
-0.31
0.08
2.78
7.39
12.81
17.60
20.61
21.29
19.78
16.89
14.08
13.10
14.85
18.61
22.01
22.24
17.91
10.43
3.81
2.68
9.81
23.69
38.79
48.30
47.68
37.23
22.38
11.47
11.94
27.40
55.70
90.06
121.77
143.37
150.67
143.50
124.76
97.38
67.04
40.71
24.48
21.31
28.92
40.43
47.79
46.52
39.26
35.69
47.47
81.58
135.72
198.33
253.74
289.25
299.94
289.36
266.27
239.19
212.63
186.42
157.41
122.62
81.66
37.22
-6.18
-44.46
-76.10
-103.21
-130.72
-164.62
-208.81
-263.42
-325.35
-389.57
-450.55
-502.30
-538.25
-551.45
-537.63
-496.70
-435.23
-366.89
-309.06
-276.31
-273.40
-292.75
-317.70
-332.21
-326.53
-301.18
-265.65
-232.14
-208.75
-194.82
-183.20
-165.89
-142.28
-117.15
-97.07
-85.55
-80.06
-73.77
-58.91
-32.44
16.26
80.44
142.71
186.44
206.56
209.40
203.95
197.79
194.87
197.28
204.00
215.05
229.97
247.24
264.22
276.31
283.48
285.68
284.79
281.94
279.43
277.65
271.43
263.13
248.23
224.27
191.78
154.95
115.27
81.88
59.86
49.37
47.03
47.21
46.95
45.81
44.90
44.28
43.35
38.55
27.89
11.94
-7.87
-28.58
-47.45
-63.06
-75.82
-82.40
-85.89
-88.68
-91.32
-93.54
-94.08
-91.93
-86.88
-79.63
-71.21
-63.87
-58.48
-54.78
-52.13
-49.59
-46.57
-43.04
-39.37
-35.89
-33.47
-32.02
-30.89
-29.57
-27.79
-25.84
-24.38
-24.06
-25.10
-27.43
-30.09
-31.94
-32.31
-31.38
-30.21
-30.25
-32.66
-37.61
-44.27
-50.80
-55.57
-57.68
-57.59
-56.79
-57.16
-60.18
-66.69
-76.73
-89.09
-101.63
-110.68
-111.81
-101.32
-78.05
-44.50
-6.55
28.14
53.51
66.78
68.91
63.98
57.33
53.24
53.58
57.62
63.15
67.94
70.85
72.20
73.10
74.23
74.87
72.77
65.69
52.98
36.75
21.31
11.52
9.65
14.54
21.95
26.42
24.44
15.77
3.32
-9.16
-18.87
-25.56
-30.87
-36.79
-44.21
-52.37
-59.70
-64.92
-67.77
-68.39
-67.53
-65.93
-64.31
-63.52
-64.59
-68.53
-75.75
-85.81
-96.38
-104.91
-109.31
-108.25
-101.27
-88.33
-70.22
-48.21
-24.17
0.96
26.14
50.83
75.35
100.58
127.76
157.81
191.40
220.08
238.07
240.61
224.82
190.43
139.98
78.20
10.97
-55.96
-118.05
-171.20
-212.89
-241.52
-255.97
-255.74
-241.51
-215.58
-181.85
-145.13
-108.97
-75.34
-43.95
-12.83
20.45
57.07
96.22
135.69
172.89
206.26
235.88
263.56
292.21
325.08
364.73
412.56
468.07
527.98
584.86
629.35
653.12
652.03
627.52
585.67
534.93
483.05
434.82
388.88
342.31
293.97
246.16
202.84
166.46
136.22
108.30
77.61
35.64
-22.52
-95.50
-176.07
-255.22
-326.70
-388.79
-443.32
-494.02
-550.71
-621.38
-708.51
-807.79
-910.37
-1006.23
-1086.09
-1142.36
-1135.30
-1044.02
-877.61
-673.79
-475.64
-309.75
-182.19
-86.72
-13.88
43.14
81.91
99.84
99.27
89.23
81.11
83.32
98.80
125.65
160.12
193.32
218.70
235.04
247.17
261.90
283.73
309.10
334.36
356.15
369.82
372.83
364.67
346.14
317.08
276.26
223.79
163.55
102.21
45.19
-3.62
-45.41
-80.99
-109.50
-128.00
-132.13
-118.72
-89.05
-50.05
-11.46
18.15
35.15
40.95
39.97
37.32
36.31
37.58
40.47
44.88
52.20
65.54
87.97
117.63
151.13
182.79
205.73
213.94
203.89
175.57
132.23
78.75
19.90
-40.62
-101.50
-163.68
-228.96
-298.09
-368.98
-435.92
-490.82
-525.90
-536.30
-522.33
-489.23
-444.64
-395.74
-347.03
-300.03
-254.60
-210.78
-169.31
-131.54
-98.12
-67.98
-38.36
-5.92
31.60
74.04
118.44
159.69
192.20
211.84
217.48
211.46
198.70
184.86
174.35
168.99
167.98
168.96
169.49
168.37
165.94
163.54
162.38
162.67
163.23
162.06
157.39
148.57
136.71
124.14
113.43
106.19
102.19
99.55
95.50
87.61
74.70
57.20
36.79
15.59
-4.59
-22.62
-37.90
-49.93
-57.89
-60.62
-56.97
-46.17
-28.11
-3.12
28.21
65.50
108.60
157.51
211.89
270.70
331.79
391.83
446.56
491.36
522.11
536.08
532.67
513.63
482.61
444.30
403.36
363.49
326.98
294.55
265.52
238.38
211.30
182.86
152.47
120.55
88.17
56.47
26.03
-3.47
-33.16
-64.68
-99.68
-139.60
-185.42
-236.88
-291.75
-345.42
-391.43
-423.49
-438.33
-438.03
-429.91
-423.22
-424.63
-435.13
-450.25
-463.59
-471.45
-475.29
-480.36
-491.76
-510.64
-533.33
-553.61
-566.33
-569.66
-564.51
-552.34
-533.36
-506.91
-473.40
-436.19
-401.14
-373.98
-357.23
-348.97
-344.05
-336.77
-323.65
-304.33
-280.45
-253.71
-224.58
-192.53
-157.02
-118.53
-78.80
-40.06
-3.88
29.60
61.46
93.24
125.96
159.45
192.47
223.24
250.33
273.25
292.67
310.14
327.61
346.91
369.31
395.20
423.63
452.26
477.54
495.56
503.11
498.73
483.09
458.61
428.44
395.48
361.91
329.17
298.37
270.59
246.70
226.96
210.68
196.31
181.97
166.17
148.37
129.06
109.44
90.92
74.61
60.99
49.97
41.04
33.52
26.87
20.75
15.06
9.85
5.13
0.86
-3.12
-6.93
-10.56
-13.82
-16.40
-17.98
-18.40
-17.75
-16.27
-14.30
-12.19
-10.20
-8.56
-7.47
-7.10
-7.57
-8.89
-10.92
-13.37
-15.82
-17.79
-18.85
-18.63
-16.89
-13.67
-9.24
-4.14
0.96
5.38
8.61
10.45
11.04
10.75
10.05
9.34
8.87
8.73
8.89
9.23
9.51
9.40
8.69
7.45
6.30
6.27
8.38
12.89
18.88
24.24
26.35
23.18
14.07
0.20
-15.96
-31.50
-44.08
-52.44
-56.49
-56.93
-54.80
-51.15
-46.82
-42.38
-38.13
-34.14
-30.33
-26.58
-22.85
-19.23
-15.91
-13.01
-10.52
-8.27
-6.00
-3.58
-1.08
1.23
2.98
3.87
3.75
2.64
0.68
-1.94
-4.96
-8.11
-11.13
-13.80
-15.94
-17.43
-18.19
-18.08
-17.03
-15.05
-12.40
-9.56
-7.11
-5.63
-5.48
-6.65
-8.72
-10.99
-12.53
-12.47
-10.19
-5.55
1.02
8.57
15.80
21.33
24.04
23.33
19.27
12.64
4.70
-3.24
-10.17
-15.72
-20.18
-24.26
-28.69
-33.84
-39.54
-45.25
-50.24
-53.91
-56.00
-56.63
-56.26
-55.53
-55.01
-55.02
-55.50
-56.11
-56.41
-56.14
-55.36
-54.41
-53.59
-52.86
-51.59
-48.80
-43.62
-35.86
-26.33
-16.51
-7.83
-0.86
5.10
11.66
20.42
31.90
44.95
57.04
65.34
68.02
65.14
58.58
51.15
45.21
41.71
40.01
38.47
35.59
30.91
25.28
20.38
17.67
17.62
19.26
20.74
20.18
16.65
10.56
3.36
-3.16
-7.83
-10.52
-12.11
-13.93
-17.30
-23.26
-32.54
-45.52
-61.79
-79.66
-95.95
-106.69
-108.65
-101.10
-86.62
-70.35
-57.92
-53.03
-55.94
-63.70
-71.93
-76.87
-76.71
-71.60
-62.55
-50.33
-34.95
-16.08
6.09
30.30
54.17
75.07
90.92
100.84
105.10
104.56
100.09
92.16
81.08
67.38
52.13
36.96
23.60
13.38
6.81
3.54
2.54
2.54
2.39
1.37
-0.77
-3.85
-7.54
-11.69
-16.46
-22.31
-29.56
-38.05
-46.85
-54.35
-58.81
-58.89
-54.09
-44.79
-31.94
-16.69
-0.06
17.09
34.17
50.74
66.55
81.40
95.20
107.76
118.89
128.32
135.81
141.03
143.74
143.81
141.34
136.71
130.36
122.66
113.82
103.95
93.39
82.72
72.74
63.98
56.27
48.76
40.46
31.13
21.71
14.06
9.97
9.98
12.97
16.67
18.73
17.87
14.30
9.33
4.58
1.19
-0.65
-1.83
-4.08
-9.56
-20.07
-36.05
-55.89
-76.13
-92.66
-102.45
-104.88
-101.95
-97.10
-93.58
-93.02
-95.13
-98.44
-101.40
-103.08
-103.03
-100.96
-96.44
-89.18
-79.34
-67.55
-54.32
-39.32
-21.46
0.38
25.92
52.58
75.79
90.36
92.48
81.34
59.42
31.67
4.12
-17.39
-28.14
-25.30
-8.73
18.56
50.70
80.38
100.78
107.51
99.37
78.10
47.13
10.45
-27.93
-63.73
-91.92
-106.84
-103.52
-79.84
-38.31
13.79
66.70
111.31
142.19
158.82
164.62
164.65
163.30
163.07
164.74
167.92
171.14
171.45
164.50
146.04
114.55
73.46
30.99
-2.81
-20.88
-22.77
-15.04
-7.78
-9.70
-24.05
-47.87
-74.56
-97.90
-114.77
-125.49
-132.03
-135.90
-137.67
-137.74
-138.23
-143.88
-160.72
-193.28
-241.38
-298.56
-353.37
-393.07
-408.13
-395.49
-359.16
-308.28
-253.42
-203.13
-162.04
-130.74
-107.03
-87.27
-67.33
-43.11
-11.21
29.94
78.72
129.99
176.16
209.67
226.06
225.78
214.00
198.17
184.80
177.04
174.13
172.62
168.52
159.22
144.26
125.13
104.26
84.06
66.24
51.45
39.42
29.39
20.51
12.28
4.49
-2.82
-9.70
-16.24
-22.52
-28.27
-32.95
-35.91
-36.96
-36.75
-36.68
-38.37
-42.70
-49.29
-56.49
-62.11
-64.54
-63.42
-59.67
-54.86
-50.43
-47.09
-44.85
-43.22
-41.52
-38.91
-34.32
-26.58
-14.85
0.75
18.67
36.11
49.90
57.70
58.99
55.20
49.10
43.55
40.37
39.82
40.93
42.21
42.57
41.80
40.51
39.65
39.90
41.36
43.60
45.98
48.02
49.53
50.56
51.05
50.77
49.20
45.92
40.79
34.16
26.82
19.68
13.47
8.47
4.50
1.03
-2.53
-6.63
-11.36
-16.43
-21.27
-25.14
-27.45
-28.01
-27.17
-25.81
-25.06
-25.82
-28.34
-32.03
-35.69
-38.03
-38.30
-36.62
-33.93
-31.58
-30.74
-31.98
-35.24
-40.09
-46.04
-52.84
-60.45
-69.00
-78.55
-89.09
-100.51
-112.64
-125.40
-138.69
-152.39
-166.36
-180.49
-194.86
-209.91
-226.43
-245.17
-266.31
-288.89
-310.78
-328.97
-340.32
-342.18
-332.77
-311.24
-277.32
-231.14
-173.04
-103.91
-25.65
58.36
143.11
222.55
290.77
343.39
378.64
397.65
403.81
401.39
394.23
384.82
374.39
363.49
352.55
342.01
331.99
321.78
309.75
293.82
272.40
245.23
213.75
180.79
149.60
122.83
101.75
86.21
74.98
66.50
59.48
53.22
47.56
42.66
38.64
35.26
31.75
27.03
20.00
9.98
-2.90
-17.86
-33.62
-48.85
-62.36
-73.20
-80.57
-83.91
-83.11
-78.74
-72.16
-65.19
-59.59
-56.41
-55.73
-56.70
-58.03
-58.51
-57.35
-54.33
-49.65
-43.79
-37.28
-30.71
-24.61
-19.44
-15.48
-12.79
-11.26
-10.69
-10.90
-11.81
-13.39
-15.55
-18.12
-20.88
-23.59
-26.06
-28.11
-29.52
-29.97
-29.15
-26.91
-23.48
-19.44
-15.65
-12.85
-11.45
-11.47
-12.58
-14.42
-16.72
-19.45
-22.74
-26.78
-31.67
-37.45
-44.02
-51.10
-58.21
-64.66
-69.69
-72.65
-73.21
-71.43
-67.78
-62.92
-57.56
-52.24
-47.21
-42.42
-37.66
-32.67
-27.35
-21.80
-16.27
-11.05
-6.41
-2.50
0.64
3.08
4.92
6.38
7.63
8.77
9.66
9.90
9.14
7.32
5.01
3.28
3.22
5.35
9.27
13.77
17.52
19.66
20.14
19.52
18.40
16.98
15.00
12.08
8.23
4.00
0.27
-2.15
-2.99
-2.60
-1.62
-0.69
-0.15
0.07
0.24
0.69
1.68
3.34
5.62
8.40
11.44
14.57
17.67
20.76
23.89
27.08
30.24
33.19
35.76
37.93
39.77
41.40
42.81
43.89
44.47
44.55
44.33
44.13
44.14
44.25
44.05
43.05
40.99
37.98
34.35
30.44
26.33
21.82
16.64
10.70
4.32
-1.99
-7.70
-12.53
-16.55
-19.98
-23.06
-25.82
-28.22
-30.19
-31.78
-33.13
-34.34
-35.31
-35.75
-35.34
-33.91
-31.62
-28.91
-26.35
-24.32
-22.86
-21.63
-20.12
-17.93
-14.89
-11.21
-7.24
-3.34
0.20
3.15
5.31
6.47
6.41
5.06
2.47
-1.14
-5.46
-10.25
-15.27
-20.32
-25.14
-29.40
-32.75
-34.97
-35.98
-35.86
-34.79
-33.00
-30.78
-28.47
-26.43
-24.99
-24.33
-24.32
-24.66
-24.91
-24.77
-24.16
-23.21
-22.13
-21.00
-19.73
-18.05
-15.71
-12.62
-8.92
-4.94
-1.08
2.27
4.73
6.04
6.09
5.09
3.65
2.61
2.80
4.60
7.83
11.80
15.70
18.95
21.41
23.28
24.78
25.92
26.43
25.94
24.31
21.73
18.72
15.83
13.35
11.28
9.33
7.21
4.75
2.13
-0.29
-2.09
-3.02
-3.09
-2.58
-1.93
-1.56
-1.75
-2.58
-3.90
-5.43
-6.86
-7.91
-8.52
-8.73
-8.69
-8.53
-8.29
-7.92
-7.31
-6.39
-5.24
-4.11
-3.33
-3.22
-3.91
-5.33
-7.15
-8.97
-10.44
-11.37
-11.86
-12.15
-12.56
-13.28
-14.27
-15.29
-15.96
-16.03
-15.42
-14.26
-12.80
-11.23
-9.59
-7.79
-5.71
-3.17
0.09
4.48
10.50
18.48
28.21
38.72
48.47
55.87
60.07
61.44
61.53
62.44
65.83
72.17
80.67
89.68
97.53
103.16
106.28
107.01
105.39
101.12
93.67
82.71
68.48
51.93
34.42
17.28
1.38
-12.94
-25.79
-37.45
-48.27
-58.71
-69.57
-82.11
-97.88
-118.21
-143.81
-174.51
-209.43
-247.19
-285.97
-323.30
-355.71
-378.80
-387.97
-379.74
-353.11
-310.27
-256.20
-197.29
-139.47
-86.80
-40.85
-1.22
33.40
64.30
92.19
117.39
140.19
161.42
182.35
204.29
227.92
252.75
277.16
299.07
316.75
329.48
337.50
341.43
341.70
338.10
330.00
316.94
299.07
277.25
252.59
225.94
197.45
166.85
133.89
98.78
62.26
25.24
-11.53
-47.63
-82.61
-115.56
-144.89
-168.61
-185.08
-193.62
-194.72
-189.78
-180.52
-168.41
-154.50
-139.53
-124.17
-109.15
-95.39
-83.97
-75.97
-72.21
-72.99
-77.79
-85.38
-94.22
-102.89
-110.33
-115.75
-118.27
-116.60
-109.36
-95.81
-76.74
-54.84
-34.12
-18.71
-11.55
-13.57
-23.55
-38.79
-55.89
-71.48
-82.66
-87.36
-84.53
-74.30
-58.10
-38.65
-19.68
-5.40
0.30
-4.88
-20.52
-42.79
-64.72
-78.03
-75.73
-54.75
-17.03
31.23
81.94
128.01
165.34
193.03
212.14
224.04
229.17
226.98
216.70
198.28
172.70
141.85
107.86
72.71
37.96
4.76
-26.47
-56.19
-85.62
-115.99
-147.45
-178.19
-204.57
-222.53
-229.18
-223.94
-208.42
-185.53
-158.32
-129.29
-100.55
-74.06
-51.77
-35.14
-24.69
-20.00
-20.20
-24.63
-32.96
-44.63
-58.00
-70.00
-76.73
-74.95
-63.47
-43.76
-19.28
6.03
29.14
48.74
65.04
78.89
90.67
99.77
104.85
104.52
98.21
86.75
72.20
57.25
44.29
34.83
29.24
27.00
27.15
28.81
31.31
34.21
37.05
39.08
39.22
36.27
29.32
18.06
3.14
-14.05
-31.63
-47.78
-61.23
-71.44
-78.54
-83.02
-85.36
-85.70
-83.86
-79.41
-72.08
-61.94
-49.64
-36.14
-22.48
-9.44
2.62
13.75
24.17
34.05
43.42
52.17
60.25
67.72
74.70
81.23
87.19
92.22
95.96
98.16
98.92
98.60
97.66
96.46
95.11
93.42
91.05
87.63
82.97
77.10
70.31
63.11
56.07
49.73
44.49
40.54
37.86
36.21
35.22
34.43
33.40
31.73
29.22
25.83
21.69
17.03
12.07
6.99
1.90
-3.05
-7.75
-12.03
-15.75
-18.80
-21.11
-22.60
-23.25
-23.10
-22.30
-21.11
-19.83
-18.70
-17.86
-17.39
-17.35
-17.91
-19.23
-21.35
-24.16
-27.24
-30.08
-32.21
-33.41
-33.80
-33.78
-33.80
-34.20
-35.05
-36.07
-36.82
-36.75
-35.52
-33.02
-29.50
-25.38
-21.12
-16.96
-12.89
-8.65
-3.96
1.27
6.88
12.54
17.94
22.98
27.82
32.72
37.85
43.18
48.48
53.46
57.92
61.82
65.21
68.12
70.43
71.94
72.49
72.12
71.09
69.82
68.70
68.00
67.75
67.80
67.88
67.74
67.15
66.00
64.24
61.89
59.00
55.67
52.00
48.11
44.17
40.31
36.64
33.18
29.83
26.41
22.69
18.46
13.55
7.90
1.50
-5.45
-12.67
-19.70
-26.05
-31.33
-35.33
-38.13
-39.98
-41.22
-42.11
-42.78
-43.22
-43.42
-43.49
-43.79
-44.94
-47.78
-53.08
-61.29
-72.30
-85.36
-99.17
-112.13
-122.75
-129.89
-132.95
-131.90
-127.19
-119.76
-110.86
-101.94
-94.40
-89.30
-87.02
-87.29
-89.19
-91.58
-93.47
-94.32
-94.14
-93.32
-92.42
-91.86
-91.74
-91.96
-92.25
-92.42
-92.32
-91.89
-90.97
-89.27
-86.37
-81.82
-75.30
-66.64
-55.83
-42.89
-27.81
-10.57
8.74
29.80
51.84
73.76
94.20
111.86
125.71
135.24
140.53
142.22
141.26
138.70
135.41
132.02
128.81
125.88
123.19
120.69
118.34
116.10
113.87
111.45
108.67
105.36
101.56
97.45
93.34
89.49
86.01
82.82
79.74
76.66
73.57
70.64
68.00
65.73
63.71
61.74
59.67
57.49
55.34
53.46
51.93
50.72
49.63
48.43
47.00
45.36
43.76
42.56
42.09
42.57
43.98
46.06
48.38
50.50
52.04
52.77
52.68
51.84
50.39
48.49
46.30
43.87
41.03
37.22
31.52
22.97
11.09
-3.63
-19.59
-34.59
-46.53
-54.26
-57.94
-58.79
-58.30
-57.51
-56.56
-54.88
-51.65
-46.50
-39.70
-32.16
-24.89
-18.66
-13.77
-10.18
-7.81
-6.77
-7.53
-10.63
-16.44
-24.80
-35.01
-46.13
-57.22
-67.73
-77.53
-86.75
-95.57
-104.00
-111.83
-118.77
-124.61
-129.30
-132.97
-135.78
-137.80
-138.99
-139.23
-138.49
-136.91
-134.79
-132.50
-130.33
-128.45
-126.80
-125.18
-123.25
-120.55
-116.63
-111.10
-103.84
-95.06
-85.23
-74.87
-64.24
-53.20
-41.23
-27.71
-12.26
5.06
23.68
42.78
61.44
78.77
93.85
105.75
113.58
116.77
115.31
109.88
101.79
92.47
83.07
74.16
65.70
57.29
48.58
39.49
30.28
21.48
13.57
6.83
1.25
-3.46
-7.67
-11.70
-15.65
-19.44
-22.82
-25.46
-26.94
-26.65
-23.76
-17.45
-7.33
6.06
21.02
34.98
45.31
50.38
50.32
46.96
43.18
41.63
43.77
49.48
57.30
65.24
71.54
75.10
75.61
73.26
68.51
61.89
54.00
45.52
37.30
30.16
24.82
21.66
20.57
21.05
22.39
24.02
25.77
28.06
31.67
37.52
46.26
58.01
72.16
87.40
101.75
112.75
117.90
115.15
103.61
83.82
57.66
27.69
-3.61
-34.45
-63.73
-90.66
-114.23
-132.97
-145.23
-149.78
-146.40
-136.07
-120.73
-102.79
-84.48
-67.53
-52.93
-40.98
-31.50
-24.09
-18.29
-13.67
-9.74
-5.80
-0.99
5.43
13.75
23.43
33.32
41.96
48.28
51.77
52.42
50.32
45.26
36.82
24.75
9.50
-7.61
-24.60
-39.58
-51.24
-59.23
-63.94
-66.06
-66.21
-64.75
-61.87
-57.80
-52.94
-47.76
-42.70
-38.03
-33.77
-29.94
-26.58
-23.96
-22.31
-21.73
-21.85
-21.94
-21.13
-18.78
-14.77
-9.52
-3.84
1.48
5.84
9.01
10.98
11.84
11.70
10.70
9.16
7.52
6.30
5.92
6.49
7.80
9.41
10.88
11.94
12.63
13.22
14.03
15.22
16.68
18.09
19.12
19.58
19.55
19.30
19.16
19.29
19.66
20.09
20.37
20.40
20.23
20.02
19.93
20.05
20.34
20.61
20.68
20.33
19.44
18.04
16.27
14.35
12.49
10.86
9.44
8.13
6.76
5.14
3.17
0.81
-1.84
-4.66
-7.45
-10.00
-12.18
-13.95
-15.41
-16.80
-18.38
-20.32
-22.63
-25.16
-27.70
-30.10
-32.28
-34.28
-36.09
-37.67
-38.89
-39.69
-40.14
-40.48
-41.05
-42.12
-43.76
-45.79
-47.91
-49.78
-51.22
-52.19
-52.78
-53.14
-53.48
-53.99
-54.90
-56.31
-58.20
-60.28
-62.04
-62.77
-61.77
-58.48
-52.60
-44.14
-33.35
-20.71
-6.81
7.62
21.75
34.80
46.12
55.37
62.56
67.96
71.96
74.79
76.50
76.86
75.60
72.51
67.57
60.92
52.83
43.60
33.61
23.34
13.40
4.49
-2.79
-8.11
-11.54
-13.44
-14.32
-14.60
-14.42
-13.70
-12.26
-10.07
-7.38
-4.68
-2.49
-1.09
-0.33
0.29
1.39
3.42
6.52
10.60
15.50
21.20
27.82
35.39
43.63
51.82
59.03
64.42
67.64
68.87
68.70
67.91
67.19
67.06
67.81
69.57
72.29
75.82
79.87
84.19
88.59
93.06
97.73
102.73
108.07
113.53
118.71
123.03
125.87
126.59
124.60
119.51
111.16
99.74
85.73
69.70
52.13
33.12
12.35
-10.76
-36.60
-64.92
-94.50
-123.33
-148.94
-169.01
-181.84
-186.76
-184.18
-175.54
-162.98
-148.74
-134.64
-121.61
-109.76
-98.79
-88.73
-80.27
-74.75
-73.47
-76.95
-84.46
-94.16
-103.80
-111.50
-116.19
-117.68
-116.19
-111.96
-105.00
-95.12
-82.20
-66.50
-48.86
-30.74
-14.03
-0.61
8.04
11.31
9.56
3.90
-4.40
-14.36
-25.62
-38.14
-51.72
-65.58
-78.19
-87.72
-92.52
-91.65
-84.82
-72.11
-53.66
-29.72
-1.15
30.19
61.42
89.29
111.35
126.70
136.16
141.48
144.39
145.80
145.78
144.05
140.54
135.67
129.99
123.72
116.57
107.98
97.69
86.25
74.95
65.36
58.61
54.94
53.69
53.79
54.24
54.55
54.65
54.65
54.50
53.86
52.22
49.21
44.89
39.75
34.57
30.09
26.63
24.05
21.82
19.37
16.34
12.78
9.00
5.46
2.49
0.16
-1.69
-3.31
-4.92
-6.62
-8.46
-10.45
-12.64
-15.05
-17.68
-20.37
-22.95
-25.28
-27.38
-29.41
-31.51
-33.50
-34.84
-34.74
-32.53
-28.12
-22.19
-16.07
-11.27
-8.93
-9.41
-12.29
-16.65
-21.48
-25.99
-29.63
-32.07
-32.97
-32.10
-29.38
-25.08
-19.87
-14.58
-9.91
-6.07
-2.66
1.21
6.50
13.72
22.63
32.26
41.32
48.62
53.57
56.26
57.19
56.98
56.02
54.38
51.99
48.76
44.82
40.48
36.15
32.27
29.18
27.11
26.11
26.09
26.84
28.10
29.66
31.36
33.09
34.67
35.91
36.70
37.10
37.36
37.76
38.44
39.06
38.93
37.24
33.50
27.81
20.97
14.12
8.39
4.45
2.36
1.61
1.34
0.58
-1.47
-5.35
-11.18
-18.66
-27.12
-35.72
-43.59
-50.13
-55.02
-58.26
-60.01
-60.52
-60.03
-58.81
-57.12
-55.17
-53.12
-51.02
-48.78
-46.34
-43.65
-40.78
-37.90
-35.17
-32.71
-30.53
-28.60
-26.91
-25.52
-24.46
-23.67
-22.81
-21.33
-18.63
-14.33
-8.49
-1.59
5.59
12.32
18.01
22.26
24.73
25.10
23.06
18.50
11.74
3.62
-4.71
-12.13
-17.95
-22.18
-25.51
-28.91
-33.20
-38.72
-45.10
-51.55
-57.21
-61.46
-64.05
-64.91
-63.95
-60.96
-55.82
-48.84
-40.93
-33.45
-27.75
-24.58
-23.67
-23.91
-23.80
-22.12
-18.43
-13.10
-7.01
-1.04
4.27
8.86
12.97
16.87
20.66
24.18
27.06
28.94
29.57
28.84
26.79
23.66
20.01
16.80
15.24
16.41
20.67
27.23
34.19
39.09
39.87
35.67
27.08
15.75
3.56
-8.20
-19.11
-29.36
-39.24
-48.60
-56.84
-63.16
-67.06
-68.42
-67.35
-63.73
-57.09
-46.83
-32.89
-16.22
1.24
17.37
30.85
41.87
52.02
63.28
76.88
92.38
107.78
120.31
127.54
128.10
121.88
109.75
93.22
74.19
54.77
37.01
22.50
11.88
4.68
-0.49
-5.30
-10.93
-17.63
-24.77
-31.33
-36.53
-40.06
-42.09
-42.83
-42.28
-40.27
-36.75
-32.01
-26.68
-21.32
-16.19
-11.14
-5.93
-0.70
3.84
6.64
6.96
4.86
1.30
-2.36
-5.13
-6.86
-8.27
-10.49
-14.41
-20.42
-28.42
-38.06
-48.81
-59.93
-70.33
-78.66
-83.61
-84.36
-81.00
-74.39
-65.90
-56.80
-47.93
-39.71
-32.16
-25.07
-18.02
-10.36
-1.47
8.96
20.52
32.07
42.03
49.02
52.33
52.16
49.34
44.98
39.98
34.94
30.12
25.58
21.14
16.23
9.97
1.36
-10.19
-24.34
-39.65
-53.91
-64.87
-71.12
-72.57
-70.23
-65.55
-59.55
-52.49
-44.16
-34.64
-24.78
-15.93
-9.10
-3.91
1.66
10.47
24.72
44.59
67.78
90.26
107.85
117.67
118.95
112.78
101.19
86.01
68.26
48.23
26.26
3.44
-18.11
-35.82
-47.67
-53.09
-53.10
-49.65
-44.47
-38.29
-30.85
-21.55
-10.27
2.33
15.32
28.14
40.97
54.40
68.60
82.74
95.05
103.57
106.99
105.19
99.09
90.12
79.58
68.22
56.31
43.88
31.06
18.12
5.43
-6.74
-18.34
-29.55
-40.61
-51.56
-62.16
-71.85
-80.07
-86.37
-90.54
-92.35
-91.27
-86.52
-77.33
-63.54
-46.12
-27.20
-9.35
5.20
15.46
21.75
25.30
27.46
29.02
30.03
30.13
28.98
26.60
23.21
19.02
13.91
7.58
-0.04
-8.28
-15.60
-20.01
-19.93
-15.08
-6.71
2.72
10.60
15.16
16.14
14.65
12.48
11.13
11.18
12.10
12.61
11.32
7.40
0.88
-7.40
-16.20
-24.38
-31.30
-36.94
-41.67
-45.86
-49.52
-52.27
-53.41
-52.37
-48.99
-43.75
-37.62
-31.65
-26.53
-22.29
-18.39
-14.07
-8.91
-3.15
2.33
6.26
7.62
6.00
1.76
-4.11
-10.28
-15.39
-18.32
-18.23
-14.77
-8.15
0.77
10.66
20.00
27.45
32.24
34.27
33.99
32.15
29.45
26.30
22.77
18.66
13.74
7.92
1.41
-5.31
-11.61
-16.93
-20.97
-23.73
-25.44
-26.36
-26.63
-26.06
-24.22
-20.54
-14.49
-5.89
4.90
16.92
28.77
38.89
46.01
49.50
49.42
46.49
41.75
36.30
31.00
26.32
22.28
18.52
14.49
9.79
4.45
-0.87
-5.07
-6.98
-5.85
-1.71
4.57
11.64
18.15
23.17
26.41
28.17
29.09
29.89
31.22
33.51
36.97
41.51
46.69
51.68
55.46
57.10
56.07
52.49
47.12
41.10
35.60
31.44
29.00
28.25
28.92
30.64
33.00
35.52
37.68
39.04
39.40
38.94
38.23
37.99
38.83
40.88
43.60
45.85
46.14
43.06
35.80
24.39
9.76
-6.54
-22.69
-37.01
-48.20
-55.56
-58.99
-58.93
-56.31
-52.40
-48.53
-45.76
-44.76
-45.59
-47.86
-50.95
-54.20
-57.05
-59.02
-59.69
-58.79
-56.28
-52.47
-48.02
-43.62
-39.78
-36.59
-33.82
-31.11
-28.30
-25.48
-22.91
-20.80
-19.20
-18.11
-17.61
-18.02
-19.70
-22.75
-26.66
-30.39
-32.68
-32.62
-30.13
-25.96
-21.31
-17.28
-14.44
-12.69
-11.55
-10.50
-9.26
-7.82
-6.25
-4.50
-2.33
0.61
4.54
9.45
15.00
20.70
26.10
30.99
35.39
39.44
43.24
46.71
49.63
51.81
53.21
54.04
54.57
54.98
55.14
54.62
52.95
49.92
45.79
41.16
36.68
32.76
29.22
25.42
20.49
13.69
4.81
-5.75
-17.19
-28.37
-38.15
-45.45
-49.51
-50.07
-47.45
-42.39
-35.86
-28.72
-21.43
-13.97
-6.16
1.99
9.75
15.82
18.85
17.93
12.67
3.67
-7.65
-19.41
-29.57
-36.99
-41.44
-43.36
-43.72
-44.27
-46.39
-50.56
-56.20
-61.46
-65.11
-66.43
-64.95
-60.57
-54.49
-48.06
-42.49
-38.62
-35.95
-34.85
-35.75
-38.73
-44.00
-53.50
-69.15
-91.70
-119.79
-148.37
-172.52
-187.79
-191.11
-173.31
-132.04
-72.75
-7.52
42.35
70.97
80.09
74.58
62.05
47.51
32.59
17.65
3.04
-9.90
-17.88
-19.37
-14.52
-4.79
7.31
18.40
26.40
31.44
35.73
43.39
56.63
75.32
97.36
119.04
135.99
145.09
145.52
138.83
128.75
118.34
109.47
102.60
96.75
90.08
80.84
68.20
52.59
35.72
19.31
4.76
-7.13
-16.34
-23.47
-29.54
-35.72
-43.17
-52.69
-64.53
-77.98
-91.22
-101.69
-106.94
-105.61
-98.01
-86.08
-72.54
-59.95
-49.88
-42.71
-38.03
-35.09
-33.36
-32.63
-32.85
-33.92
-35.58
-37.46
-39.50
-42.06
-45.94
-52.03
-60.62
-71.04
-81.57
-90.03
-94.61
-94.70
-91.02
-85.18
-78.78
-72.62
-66.45
-59.28
-50.20
-38.91
-25.95
-12.35
0.99
13.70
26.14
39.04
53.05
68.30
84.25
99.78
113.57
124.53
132.10
136.40
138.13
138.22
137.47
136.23
134.38
131.52
127.32
121.82
115.51
109.06
103.02
97.49
92.06
86.13
79.29
71.73
64.13
57.40
52.21
48.66
46.34
44.62
43.06
41.63
40.66
40.50
41.20
42.29
42.87
41.87
38.51
32.50
24.24
14.63
4.79
-4.37
-12.39
-19.30
-25.41
-30.92
-35.71
-39.36
-41.56
-42.47
-43.04
-44.72
-49.00
-56.68
-67.43
-79.83
-91.80
-101.32
-107.05
-108.64
-106.74
-102.61
-97.72
-93.35
-90.44
-89.47
-90.36
-92.16
-93.02
-90.30
-81.33
-64.52
-40.25
-11.18
18.57
44.90
65.21
79.15
88.19
94.44
99.44
103.52
106.10
106.47
104.53
100.93
96.67
92.39
87.99
82.72
75.77
66.78
56.22
45.28
35.32
27.48
22.25
19.48
18.59
18.84
19.65
20.63
21.64
22.58
23.27
23.45
22.82
21.17
18.55
15.25
11.75
8.50
5.76
3.53
1.63
-0.24
-2.27
-4.59
-7.24
-10.34
-14.04
-18.54
-23.92
-30.03
-36.42
-42.40
-47.19
-50.15
-50.97
-49.75
-46.93
-43.14
-38.97
-34.79
-30.72
-26.67
-22.45
-17.89
-12.95
-7.83
-2.90
1.32
4.28
5.61
5.29
3.68
1.39
-0.94
-2.85
-4.28
-5.37
-6.44
-7.70
-9.20
-10.83
-12.48
-14.08
-15.61
-17.06
-18.32
-19.18
-19.37
-18.70
-17.19
-15.02
-12.47
-9.82
-7.27
-4.91
-2.78
-1.00
0.33
1.05
1.15
0.73
0.02
-0.72
-1.30
-1.63
-1.76
-1.78
-1.81
-1.97
-2.38
-3.07
-4.05
-5.24
-6.52
-7.81
-9.13
-10.60
-12.43
-14.70
-17.40
-20.27
-22.89
-24.81
-25.65
-25.22
-23.63
-21.27
-18.81
-17.05
-16.68
-18.02
-20.82
-24.31
-27.42
-29.20
-29.13
-27.22
-23.93
-19.76
-15.04
-9.83
-4.05
2.35
9.23
16.31
23.30
29.99
36.37
42.47
48.35
53.91
58.91
63.06
66.15
68.17
69.34
70.07
70.78
71.73
72.88
73.91
74.36
73.77
71.88
68.65
64.23
58.80
52.59
45.76
38.53
31.12
23.80
16.78
10.19
4.04
-1.69
-7.01
-11.83
-15.99
-19.32
-21.75
-23.29
-24.11
-24.40
-24.42
-24.34
-24.31
-24.41
-24.65
-25.01
-25.48
-26.05
-26.74
-27.57
-28.42
-29.06
-29.17
-28.47
-26.95
-24.87
-22.69
-20.88
-19.74
-19.22
-19.12
-19.18
-19.26
-19.39
-19.67
-20.15
-20.76
-21.34
-21.72
-21.84
-21.69
-21.36
-20.96
-20.56
-20.19
-19.85
-19.50
-19.09
-18.58
-17.92
-17.06
-15.98
-14.63
-12.98
-11.05
-8.89
-6.66
-4.51
-2.53
-0.77
0.77
2.12
3.25
4.08
4.55
4.60
4.26
3.62
2.76
1.79
0.76
-0.31
-1.41
-2.52
-3.66
-4.78
-5.87
-6.89
-7.88
-8.84
-9.85
-10.97
-12.22
-13.62
-15.10
-16.58
-17.91
-18.90
-19.29
-18.83
-17.30
-14.60
-10.82
-6.21
-1.18
3.79
8.27
11.95
14.68
16.53
17.67
18.35
18.77
19.02
19.04
18.71
17.90
16.57
14.80
12.78
10.69
8.66
6.70
4.69
2.48
-0.04
-2.97
-6.34
-10.19
-14.49
-19.22
-24.23
-29.31
-34.23
-38.79
-42.99
-47.03
-51.34
-56.36
-62.35
-69.16
-76.18
-82.39
-86.64
-87.90
-85.58
-79.52
-70.04
-57.81
-43.64
-28.44
-13.10
1.57
14.95
26.65
36.51
44.61
51.07
55.98
59.32
61.03
61.08
59.59
56.84
53.26
49.24
45.05
40.81
36.56
32.30
28.14
24.22
20.67
17.55
14.75
11.99
8.97
5.38
1.09
-3.86
-9.24
-14.71
-19.94
-24.71
-28.99
-32.94
-36.83
-40.86
-45.09
-49.35
-53.36
-56.79
-59.54
-61.67
-63.48
-65.25
-67.05
-68.51
-68.83
-66.94
-61.80
-52.79
-39.97
-24.12
-6.54
11.38
28.55
44.46
59.19
73.19
86.85
100.20
112.71
123.33
130.72
133.54
130.80
122.15
108.31
91.26
74.17
60.70
53.72
54.17
60.28
68.18
73.33
72.35
64.25
50.56
34.30
18.49
5.10
-5.23
-12.74
-17.86
-20.82
-21.69
-20.71
-18.51
-16.06
-14.27
-13.65
-14.07
-14.86
-15.15
-14.28
-12.10
-8.97
-5.59
-2.60
-0.29
1.57
3.57
6.42
10.61
16.21
22.89
30.03
37.00
43.28
48.60
52.93
56.40
59.18
61.49
63.51
65.35
67.04
68.57
69.89
70.94
71.70
72.24
72.59
72.75
72.57
71.82
70.17
67.35
63.19
57.73
51.16
43.80
35.99
28.09
20.33
12.84
5.59
-1.54
-8.66
-15.86
-23.21
-30.80
-38.74
-47.21
-56.28
-65.86
-75.62
-85.07
-93.68
-101.02
-106.82
-110.92
-113.23
-113.70
-112.45
-109.77
-106.13
-102.04
-97.91
-93.92
-90.02
-86.07
-81.95
-77.70
-73.46
-69.48
-65.98
-63.08
-60.66
-58.33
-55.51
-51.55
-45.97
-38.72
-30.12
-20.92
-11.93
-3.84
2.98
8.50
12.90
16.32
18.75
19.99
19.79
18.04
14.92
11.00
7.02
3.71
1.55
0.64
0.74
1.43
2.33
3.16
3.77
4.03
3.85
3.14
1.91
0.40
-1.02
-1.83
-1.59
-0.11
2.48
5.71
8.94
11.52
12.98
13.15
12.16
10.32
8.10
5.88
3.96
2.47
1.41
0.78
0.46
0.30
0.03
-0.72
-2.30
-4.89
-8.35
-12.23
-15.88
-18.74
-20.53
-21.39
-21.74
-22.12
-22.90
-24.17
-25.67
-26.89
-27.28
-26.34
-23.79
-19.64
-14.14
-7.79
-1.14
5.24
10.92
15.59
19.10
21.40
22.54
22.65
21.89
20.55
18.85
17.02
15.19
13.38
11.50
9.47
7.24
4.89
2.67
0.98
0.24
0.75
2.58
5.43
8.71
11.70
13.75
14.48
13.85
12.17
9.94
7.71
5.87
4.65
4.08
4.05
4.41
5.01
5.77
6.63
7.55
8.48
9.35
10.07
10.63
11.02
11.30
11.49
11.59
11.56
11.29
10.69
9.71
8.39
6.80
5.08
3.31
1.52
-0.35
-2.40
-4.72
-7.35
-10.18
-13.01
-15.46
-17.14
-17.66
-16.82
-14.70
-11.64
-8.16
-4.73
-1.67
0.96
3.27
5.38
7.29
8.82
9.75
9.98
9.61
8.98
8.49
8.46
9.00
9.97
11.06
11.94
12.32
12.04
11.11
9.64
7.86
5.97
4.15
2.48
0.95
-0.48
-1.86
-3.17
-4.35
-5.27
-5.79
-5.71
-4.88
-3.24
-0.89
1.78
4.15
5.61
5.67
4.32
1.89
-0.98
-3.71
-5.89
-7.47
-8.55
-9.26
-9.65
-9.62
-9.06
-7.89
-6.17
-3.94
-1.19
2.15
6.23
11.08
16.57
22.36
27.98
32.89
36.64
38.94
39.62
38.68
36.24
32.54
27.97
23.01
18.21
14.02
10.73
8.37
6.75
5.59
4.58
3.57
2.58
1.75
1.26
1.24
1.67
2.44
3.36
4.26
5.03
5.63
6.01
6.16
6.01
5.47
4.46
2.98
1.10
-1.01
-3.16
-5.17
-6.90
-8.31
-9.40
-10.24
-10.94
-11.60
-12.27
-12.94
-13.49
-13.72
-13.43
-12.48
-10.84
-8.61
-6.00
-3.27
-0.64
1.73
3.70
5.18
6.06
6.27
5.80
4.76
3.32
1.72
0.16
-1.26
-2.50
-3.61
-4.69
-5.79
-6.91
-7.96
-8.79
-9.23
-9.12
-8.33
-6.90
-4.92
-2.66
-0.40
1.53
2.86
3.40
3.05
1.88
0.13
-1.85
-3.65
-4.84
-5.09
-4.22
-2.23
0.70
4.20
7.83
11.10
13.56
14.98
15.35
14.94
14.22
13.73
13.83
14.62
15.86
17.04
17.60
17.17
15.65
13.26
10.44
7.59
5.00
2.74
0.73
-1.13
-2.91
-4.63
-6.24
-7.69
-8.96
-9.97
-10.55
-10.43
-9.32
-7.10
-3.88
-0.08
3.70
6.83
8.83
9.47
8.74
6.74
3.68
-0.17
-4.38
-8.36
-11.35
-12.70
-12.02
-9.32
-5.09
-0.04
5.06
9.64
13.35
16.08
17.81
18.58
18.43
17.45
15.80
13.70
11.32
8.72
5.91
2.86
-0.32
-3.39
-5.99
-7.73
-8.40
-7.98
-6.69
-4.85
-2.80
-0.84
0.85
2.16
3.03
3.45
3.48
3.25
2.91
2.61
2.42
2.33
2.26
2.13
1.85
1.42
0.87
0.22
-0.50
-1.26
-1.99
-2.65
-3.17
-3.53
-3.82
-4.18
-4.74
-5.62
-6.82
-8.23
-9.68
-10.95
-11.87
-12.32
-12.20
-11.47
-10.17
-8.43
-6.47
-4.54
-2.85
-1.50
-0.47
0.36
1.09
1.74
2.28
2.61
2.65
2.40
1.96
1.45
1.01
0.70
0.56
0.57
0.70
0.88
1.08
1.22
1.21
0.96
0.36
-0.62
-1.96
-3.59
-5.38
-7.20
-8.88
-10.23
-11.05
-11.12
-10.27
-8.43
-5.71
-2.32
1.37
5.01
8.25
10.84
12.65
13.63
13.81
13.28
12.15
10.56
8.66
6.61
4.49
2.29
-0.08
-2.79
-5.97
-9.64
-13.67
-17.74
-21.36
-23.99
-25.11
-24.41
-21.92
-18.00
-13.30
-8.53
-4.28
-0.85
1.75
3.80
5.66
7.63
9.81
12.17
14.51
16.62
18.27
19.33
19.72
19.39
18.35
16.65
14.43
11.92
9.43
7.29
5.75
4.89
4.65
4.82
5.15
5.39
5.40
5.14
4.68
4.16
3.66
3.19
2.62
1.78
0.53
-1.18
-3.25
-5.49
-7.68
-9.60
-11.04
-11.82
-11.78
-10.85
-9.11
-6.76
-4.10
-1.43
1.01
3.08
4.67
5.72
6.18
6.04
5.39
4.39
3.24
2.16
1.31
0.78
0.59
0.69
0.97
1.28
1.47
1.41
1.06
0.48
-0.22
-0.91
-1.49
-2.01
-2.57
-3.36
-4.57
-6.29
-8.47
-10.87
-13.14
-14.91
-15.85
-15.83
-14.89
-13.28
-11.36
-9.50
-7.98
-6.93
-6.35
-6.15
-6.21
-6.46
-6.85
-7.34
-7.87
-8.37
-8.74
-8.91
-8.92
-8.86
-8.90
-9.14
-9.55
-9.98
-10.21
-10.06
-9.48
-8.56
-7.44
-6.26
-5.07
-3.86
-2.65
-1.48
-0.42
0.51
1.39
2.40
3.75
5.53
7.63
9.78
11.63
12.84
13.13
12.33
10.38
7.28
3.15
-1.73
-6.90
-11.79
-15.82
-18.56
-19.83
-19.77
-18.72
-17.08
-15.20
-13.24
-11.20
-8.94
-6.40
-3.62
-0.75
1.98
4.36
6.24
7.55
8.27
8.40
8.00
7.22
6.26
5.41
4.88
4.78
4.97
5.16
4.94
4.00
2.16
-0.49
-3.66
-6.95
-9.93
-12.24
-13.60
-13.85
-12.97
-11.03
-8.26
-4.97
-1.48
1.89
4.92
7.51
9.62
11.17
12.06
12.06
10.99
8.66
5.05
0.32
-5.20
-11.08
-16.86
-22.13
-26.53
-29.71
-31.31
-31.01
-28.57
-23.99
-17.50
-9.56
-0.77
8.22
16.86
24.72
31.45
36.86
40.72
42.87
43.12
41.39
37.67
32.08
24.91
16.58
7.65
-1.25
-9.44
-16.29
-21.29
-24.13
-24.75
-23.29
-20.04
-15.31
-9.45
-2.74
4.46
11.77
18.74
24.86
29.76
33.16
35.00
35.38
34.51
32.61
29.87
26.37
22.08
16.97
11.09
4.71
-1.70
-7.48
-12.05
-14.95
-16.02
-15.33
-13.06
-9.43
-4.65
1.00
7.08
12.97
18.04
21.69
23.60
23.63
21.82
18.25
13.02
6.31
-1.57
-10.07
-18.50
-26.10
-32.19
-36.32
-38.37
-38.44
-36.80
-33.65
-29.12
-23.15
-15.71
-6.85
3.11
13.59
23.78
32.87
40.14
45.08
47.39
46.92
43.70
37.95
30.10
20.88
11.22
2.17
-5.27
-10.37
-12.74
-12.39
-9.65
-5.13
0.44
6.30
11.71
16.06
18.93
20.13
19.63
17.48
13.79
8.64
2.18
-5.36
-13.57
-21.92
-29.82
-36.71
-42.11
-45.68
-47.15
-46.37
-43.36
-38.38
-31.94
-24.76
-17.63
-11.25
-6.12
-2.46
-0.24
0.76
0.85
0.36
-0.40
-1.16
-1.70
-1.88
-1.58
-0.73
0.70
2.67
5.07
7.66
10.13
12.14
13.41
13.83
13.49
12.63
11.56
10.45
9.30
7.97
6.26
4.08
1.49
-1.30
-4.09
-6.67
-8.92
-10.69
-11.79
-12.03
-11.30
-9.64
-7.30
-4.68
-2.18
-0.13
1.29
2.05
2.23
2.02
1.61
1.21
0.95
0.85
0.83
0.76
0.54
0.15
-0.38
-1.00
-1.66
-2.37
-3.09
-3.77
-4.34
-4.75
-5.05
-5.32
-5.69
-6.17
-6.64
-6.87
-6.65
-5.86
-4.58
-3.00
-1.33
0.32
1.99
3.84
6.05
8.68
11.66
14.79
17.81
20.59
23.06
25.24
27.16
28.80
30.04
30.70
30.65
29.86
28.41
26.48
24.28
21.93
19.44
16.75
13.74
10.31
6.44
2.20
-2.27
-6.72
-10.94
-14.72
-17.96
-20.62
-22.74
-24.39
-25.58
-26.27
-26.38
-25.80
-24.47
-22.40
-19.62
-16.18
-12.18
-7.75
-3.14
1.31
5.16
7.99
9.55
9.78
8.84
7.08
4.90
2.68
0.64
-1.14
-2.67
-4.07
-5.44
-6.86
-8.33
-9.83
-11.30
-12.66
-13.84
-14.79
-15.46
-15.90
-16.19
-16.48
-16.95
-17.67
-18.61
-19.64
-20.61
-21.40
-22.05
-22.69
-23.53
-24.72
-26.22
-27.74
-28.80
-28.80
-27.24
-23.86
-18.69
-12.08
-4.54
3.37
11.10
18.17
24.19
28.82
31.88
33.38
33.49
32.56
30.94
28.89
26.59
24.08
21.40
18.61
15.83
13.14
10.60
8.23
6.04
4.09
2.48
1.31
0.57
0.15
-0.12
-0.42
-0.84
-1.44
-2.21
-3.12
-4.09
-4.98
-5.52
-5.44
-4.55
-2.83
-0.53
2.04
4.54
6.75
8.59
10.04
11.06
11.58
11.56
10.99
10.06
8.99
8.03
7.37
7.05
6.99
7.06
7.12
7.09
6.96
6.71
6.34
5.77
4.87
3.53
1.68
-0.68
-3.45
-6.47
-9.58
-12.64
-15.54
-18.12
-20.19
-21.49
-21.69
-20.53
-17.90
-13.88
-8.83
-3.25
2.29
7.27
11.33
14.26
15.99
16.53
15.99
14.55
12.44
9.93
7.26
4.58
1.92
-0.74
-3.49
-6.35
-9.32
-12.31
-15.22
-17.97
-20.49
-22.70
-24.58
-26.08
-27.16
-27.77
-27.89
-27.49
-26.60
-25.29
-23.65
-21.80
-19.80
-17.63
-15.20
-12.44
-9.38
-6.27
-3.46
-1.38
-0.40
-0.68
-2.10
-4.39
-7.14
-9.87
-12.12
-13.47
-13.57
-12.19
-9.30
-5.05
0.27
6.26
12.50
18.53
23.91
28.20
31.00
32.01
31.15
28.55
24.57
19.69
14.42
9.18
4.29
-0.07
-3.80
-6.84
-9.18
-10.74
-11.50
-11.39
-10.40
-8.59
-6.09
-3.18
-0.15
2.67
5.04
6.76
7.75
7.98
7.46
6.23
4.31
1.73
-1.45
-5.07
-8.87
-12.43
-15.23
-16.83
-16.97
-15.66
-13.19
-9.96
-6.36
-2.62
1.15
4.90
8.51
11.79
14.49
16.43
17.56
18.01
18.00
17.76
17.49
17.31
17.36
17.74
18.53
19.75
21.29
22.90
24.28
25.17
25.42
25.03
24.08
22.68
20.87
18.71
16.25
13.63
11.07
8.84
7.12
5.94
5.18
4.64
4.16
3.68
3.27
3.04
3.02
3.16
3.30
3.24
2.83
2.01
0.78
-0.80
-2.70
-4.83
-7.10
-9.29
-11.16
-12.46
-13.04
-12.89
-12.15
-11.01
-9.73
-8.52
-7.53
-6.81
-6.34
-6.07
-5.91
-5.85
-5.89
-6.08
-6.42
-6.84
-7.22
-7.41
-7.30
-6.93
-6.40
-5.90
-5.54
-5.40
-5.43
-5.57
-5.77
-6.05
-6.48
-7.09
-7.85
-8.68
-9.47
-10.18
-10.79
-11.32
-11.74
-11.91
-11.62
-10.65
-8.90
-6.49
-3.70
-0.90
1.65
3.81
5.66
7.33
8.94
10.49
11.93
13.19
14.25
15.16
15.96
16.63
17.05
17.07
16.61
15.69
14.44
12.97
11.32
9.37
6.99
4.09
0.73
-2.85
-6.34
-9.49
-12.18
-14.46
-16.48
-18.35
-20.14
-21.73
-22.89
-23.33
-22.74
-20.97
-18.08
-14.32
-10.11
-5.86
-1.94
1.43
4.13
6.12
7.33
7.73
7.32
6.25
4.83
3.37
2.21
1.51
1.24
1.30
1.52
1.79
2.06
2.25
2.27
1.97
1.20
-0.16
-2.07
-4.41
-6.88
-9.18
-11.01
-12.16
-12.55
-12.27
-11.45
-10.23
-8.67
-6.77
-4.49
-1.83
1.11
4.14
7.04
9.63
11.82
13.61
15.03
16.11
16.87
17.36
17.65
17.91
18.34
19.14
20.41
22.08
23.93
25.65
26.95
27.65
27.76
27.41
26.84
26.25
25.77
25.39
25.01
24.47
23.61
22.28
20.40
17.96
14.95
11.40
7.32
2.72
-2.35
-7.81
-13.52
-19.38
-25.25
-31.01
-36.47
-41.32
-45.16
-47.56
-48.14
-46.66
-43.08
-37.59
-30.51
-22.27
-13.36
-4.26
4.55
12.57
19.44
24.87
28.78
31.23
32.39
32.41
31.36
29.21
25.91
21.43
15.80
9.09
1.37
-7.27
-16.70
-26.66
-36.71
-46.25
-54.67
-61.54
-66.68
-70.26
-72.66
-74.32
-75.59
-76.64
-77.38
-77.46
-76.35
-73.42
-68.11
-60.06
-49.24
-35.96
-20.80
-4.47
12.30
28.85
44.62
59.11
71.90
82.63
91.09
97.18
100.97
102.62
102.31
100.18
96.35
90.95
84.18
76.31
67.66
58.54
49.19
39.74
30.32
21.10
12.33
4.33
-2.57
-8.17
-12.44
-15.60
-18.03
-20.24
-22.66
-25.58
-28.97
-32.55
-35.79
-38.16
-39.26
-39.00
-37.47
-34.94
-31.67
-27.81
-23.40
-18.40
-12.77
-6.52
0.33
7.66
15.33
23.10
30.68
37.74
43.92
48.92
52.50
54.57
55.13
54.34
52.35
49.30
45.26
40.26
34.36
27.75
20.73
13.66
6.84
0.47
-5.37
-10.61
-15.15
-18.83
-21.50
-23.15
-23.86
-23.85
-23.38
-22.63
-21.73
-20.78
-19.85
-19.08
-18.59
-18.56
-19.12
-20.40
-22.46
-25.24
-28.56
-32.11
-35.54
-38.54
-40.89
-42.49
-43.29
-43.26
-42.38
-40.64
-38.08
-34.84
-31.14
-27.18
-23.12
-19.10
-15.18
-11.49
-8.17
-5.38
-3.24
-1.73
-0.69
0.20
1.30
2.84
4.89
7.31
9.80
12.03
13.72
14.73
15.12
15.06
14.80
14.60
14.63
14.97
15.57
16.34
17.13
17.78
18.10
17.86
16.90
15.15
12.75
10.04
7.44
5.24
3.52
2.11
0.73
-0.85
-2.72
-4.77
-6.84
-8.83
-10.73
-12.54
-14.23
-15.67
-16.61
-16.84
-16.23
-14.86
-12.91
-10.68
-8.44
-6.41
-4.69
-3.29
-2.16
-1.24
-0.49
0.09
0.49
0.70
0.77
0.80
0.92
1.20
1.70
2.35
3.04
3.65
4.08
4.25
4.12
3.66
2.90
1.87
0.63
-0.75
-2.19
-3.62
-4.94
-6.11
-7.10
-7.93
-8.57
-8.98
-9.03
-8.54
-7.35
-5.35
-2.61
0.64
4.09
7.44
10.55
13.42
16.13
18.69
20.96
22.64
23.38
22.97
21.42
18.98
16.07
13.09
10.35
7.99
6.04
4.46
3.21
2.22
1.37
0.56
-0.31
-1.29
-2.32
-3.33
-4.21
-4.92
-5.44
-5.80
-6.01
-6.11
-6.15
-6.24
-6.48
-6.96
-7.66
-8.45
-9.14
-9.50
-9.40
-8.81
-7.79
-6.44
-4.90
-3.28
-1.69
-0.18
1.20
2.47
3.59
4.46
4.93
4.86
4.20
3.13
2.05
1.42
1.63
2.80
4.69
6.80
8.54
9.45
9.32
8.22
6.40
4.16
1.77
-0.59
-2.78
-4.73
-6.39
-7.76
-8.91
-9.94
-10.99
-12.11
-13.27
-14.32
-15.06
-15.27
-14.81
-13.66
-11.86
-9.56
-6.94
-4.21
-1.64
0.55
2.14
3.00
3.10
2.54
1.47
0.11
-1.33
-2.68
-3.78
-4.59
-5.11
-5.41
-5.56
-5.57
-5.40
-5.00
-4.33
-3.48
-2.56
-1.73
-1.09
-0.67
-0.46
-0.46
-0.68
-1.12
-1.76
-2.53
-3.36
-4.21
-5.05
-5.88
-6.62
-7.09
-7.06
-6.37
-4.95
-2.92
-0.53
1.94
4.26
6.31
8.07
9.56
10.78
11.66
12.13
12.18
11.84
11.19
10.31
9.19
7.74
5.89
3.67
1.29
-0.88
-2.45
-3.19
-3.06
-2.21
-0.96
0.44
1.76
2.89
3.74
4.19
4.04
3.09
1.21
-1.56
-4.98
-8.61
-11.96
-14.65
-16.45
-17.29
-17.20
-16.23
-14.43
-11.90
-8.86
-5.70
-2.90
-0.96
-0.21
-0.77
-2.53
-5.22
-8.56
-12.21
-15.88
-19.25
-22.01
-23.94
-24.88
-24.85
-23.98
-22.56
-20.89
-19.28
-17.93
-16.91
-16.23
-15.82
-15.59
-15.48
-15.42
-15.28
-14.95
-14.23
-12.96
-10.99
-8.28
-4.80
-0.56
4.42
10.11
16.44
23.22
30.10
36.59
42.16
46.25
48.48
48.72
47.05
43.78
39.27
33.84
27.75
21.16
14.23
7.10
-0.05
-7.02
-13.66
-19.80
-25.26
-29.83
-33.25
-35.25
-35.58
-34.09
-30.77
-25.77
-19.38
-12.02
-4.11
3.93
11.74
19.02
25.54
31.14
35.81
39.69
43.05
46.13
49.07
51.74
53.88
55.19
55.53
54.93
53.60
51.67
49.10
45.69
41.18
35.37
28.29
20.12
11.16
1.67
-8.11
-17.97
-27.66
-36.84
-45.13
-52.12
-57.47
-60.94
-62.40
-61.92
-59.66
-55.86
-50.80
-44.70
-37.71
-29.97
-21.58
-12.69
-3.40
6.12
15.68
25.06
33.98
42.13
49.24
55.11
59.63
62.75
64.44
64.62
63.22
60.22
55.68
49.81
43.00
35.68
28.32
21.29
14.87
9.17
4.12
-0.40
-4.56
-8.40
-11.85
-14.70
-16.76
-17.95
-18.40
-18.44
-18.43
-18.74
-19.54
-20.83
-22.48
-24.31
-26.10
-27.66
-28.78
-29.21
-28.76
-27.29
-24.85
-21.60
-17.86
-13.93
-10.12
-6.65
-3.65
-1.24
0.58
1.80
2.39
2.36
1.64
0.19
-2.03
-4.99
-8.60
-12.70
-17.10
-21.60
-26.05
-30.29
-34.19
-37.60
-40.41
-42.49
-43.72
-44.02
-43.39
-41.91
-39.78
-37.20
-34.34
-31.22
-27.74
-23.67
-18.82
-13.11
-6.68
0.14
6.91
13.26
18.87
23.65
27.62
30.90
33.56
35.67
37.24
38.29
38.87
39.11
39.17
39.22
39.36
39.60
39.83
39.83
39.35
38.16
36.15
33.29
29.66
25.37
20.54
15.32
9.93
4.61
-0.36
-4.75
-8.36
-11.00
-12.52
-12.73
-11.50
-8.86
-5.02
-0.43
4.36
8.84
12.62
15.53
17.55
18.72
19.11
18.79
17.85
16.45
14.71
12.74
10.60
8.19
5.38
1.99
-2.10
-6.97
-12.64
-19.05
-26.10
-33.61
-41.29
-48.80
-55.84
-62.18
-67.76
-72.61
-76.78
-80.26
-82.89
-84.46
-84.80
-83.87
-81.77
-78.64
-74.59
-69.65
-63.76
-56.86
-48.96
-40.16
-30.64
-20.55
-10.03
0.79
11.68
22.26
32.11
40.82
48.19
54.23
59.13
63.16
66.41
68.80
70.08
69.96
68.29
65.15
60.86
55.81
50.34
44.63
38.76
32.84
27.12
22.06
18.13
15.65
14.63
14.80
15.72
17.02
18.52
20.23
22.26
24.63
27.21
29.69
31.70
32.87
32.96
31.82
29.44
25.87
21.26
15.85
9.96
4.00
-1.65
-6.71
-11.05
-14.66
-17.60
-19.85
-21.34
-21.95
-21.69
-20.71
-19.36
-18.09
-17.28
-17.16
-17.81
-19.11
-20.86
-22.77
-24.46
-25.52
-25.56
-24.32
-21.72
-17.89
-13.11
-7.72
-2.05
3.60
8.96
13.79
17.91
21.22
23.73
25.52
26.73
27.48
27.86
27.88
27.52
26.78
25.63
24.08
22.12
19.76
17.08
14.23
11.41
8.84
6.62
4.67
2.80
0.72
-1.74
-4.62
-7.81
-11.10
-14.27
-17.13
-19.55
-21.41
-22.59
-23.04
-22.78
-21.92
-20.63
-19.06
-17.32
-15.43
-13.38
-11.15
-8.68
-5.98
-3.08
-0.07
2.91
5.64
7.92
9.60
10.56
10.75
10.17
8.86
6.92
4.49
1.73
-1.15
-3.97
-6.58
-8.82
-10.61
-11.95
-12.94
-13.77
-14.65
-15.67
-16.78
-17.77
-18.36
-18.39
-17.84
-16.87
-15.76
-14.73
-13.88
-13.18
-12.47
-11.58
-10.38
-8.82
-6.92
-4.73
-2.32
0.28
3.03
5.87
8.74
11.49
14.02
16.26
18.22
19.93
21.41
22.59
23.31
23.42
22.77
21.32
19.16
16.45
13.40
10.20
7.00
3.91
1.02
-1.60
-3.91
-5.92
-7.69
-9.29
-10.80
-12.19
-13.40
-14.31
-14.77
-14.65
-13.85
-12.34
-10.17
-7.51
-4.66
-1.96
0.26
1.83
2.77
3.31
3.73
4.26
4.98
5.80
6.56
7.08
7.24
7.00
6.41
5.54
4.45
3.17
1.73
0.16
-1.49
-3.19
-4.90
-6.60
-8.28
-9.94
-11.51
-12.84
-13.77
-14.17
-13.98
-13.27
-12.18
-10.83
-9.27
-7.47
-5.38
-3.00
-0.42
2.17
4.59
6.71
8.49
9.96
11.11
11.98
12.61
13.09
13.59
14.32
15.41
16.88
18.58
20.24
21.57
22.33
22.43
21.91
20.94
19.73
18.51
17.44
16.60
15.95
15.41
14.83
14.09
13.15
12.02
10.75
9.43
8.14
6.98
6.01
5.23
4.64
4.17
3.75
3.36
3.04
2.87
2.93
3.17
3.48
3.64
3.48
2.96
2.15
1.27
0.52
0.10
0.05
0.35
0.87
1.44
1.91
2.12
1.96
1.33
0.20
-1.47
-3.63
-6.23
-9.20
-12.49
-16.09
-20.00
-24.25
-28.83
-33.64
-38.47
-43.05
-47.05
-50.13
-52.08
-52.75
-52.16
-50.40
-47.61
-43.89
-39.29
-33.87
-27.73
-21.08
-14.22
-7.50
-1.27
4.20
8.71
12.16
14.58
16.08
16.91
17.24
17.19
16.69
15.60
13.87
11.60
9.09
6.71
4.77
3.38
2.44
1.73
1.04
0.25
-0.66
-1.66
-2.72
-3.88
-5.23
-6.86
-8.80
-10.98
-13.25
-15.41
-17.27
-18.72
-19.67
-20.10
-20.00
-19.35
-18.21
-16.63
-14.75
-12.75
-10.78
-8.97
-7.36
-5.88
-4.39
-2.74
-0.84
1.26
3.40
5.39
7.12
8.58
9.82
10.88
11.68
12.08
11.94
11.26
10.21
9.05
8.00
7.17
6.51
5.90
5.21
4.37
3.42
2.40
1.38
0.38
-0.56
-1.41
-2.13
-2.66
-2.97
-3.07
-3.01
-2.87
-2.70
-2.56
-2.48
-2.48
-2.56
-2.67
-2.73
-2.63
-2.24
-1.46
-0.29
1.20
2.87
4.52
5.95
6.98
7.53
7.60
7.28
6.70
5.97
5.15
4.24
3.26
2.24
1.24
0.29
-0.62
-1.57
-2.64
-3.87
-5.26
-6.75
-8.29
-9.85
-11.43
-13.01
-14.50
-15.79
-16.74
-17.24
-17.16
-16.44
-15.10
-13.22
-10.99
-8.67
-6.54
-4.80
-3.52
-2.64
-2.02
-1.45
-0.78
0.10
1.22
2.56
4.02
5.50
6.85
7.98
8.81
9.32
9.53
9.39
8.87
7.93
6.58
4.93
3.19
1.65
0.53
-0.07
-0.23
-0.15
-0.11
-0.26
-0.63
-1.08
-1.41
-1.47
-1.18
-0.62
0.06
0.68
1.09
1.23
1.13
0.86
0.49
0.09
-0.28
-0.62
-0.92
-1.14
-1.28
-1.33
-1.34
-1.41
-1.68
-2.24
-3.01
-3.81
-4.34
-4.31
-3.57
-2.15
-0.26
1.83
3.83
5.61
7.11
8.35
9.37
10.16
10.71
11.01
11.14
11.20
11.32
11.52
11.76
11.91
11.86
11.58
11.09
10.50
9.88
9.27
8.69
8.15
7.70
7.38
7.23
7.24
7.38
7.57
7.74
7.81
7.74
7.49
7.02
6.31
5.34
4.12
2.74
1.35
0.12
-0.78
-1.30
-1.49
-1.51
-1.57
-1.88
-2.56
-3.63
-4.98
-6.35
-7.41
-7.83
-7.39
-6.11
-4.23
-2.19
-0.41
0.85
1.51
1.67
1.43
0.87
0.04
-1.04
-2.26
-3.45
-4.36
-4.79
-4.67
-4.06
-3.12
-2.09
-1.16
-0.42
0.15
0.64
1.12
1.61
2.08
2.44
2.67
2.83
3.03
3.37
3.83
4.24
4.41
4.16
3.48
2.50
1.43
0.47
-0.29
-0.84
-1.26
-1.68
-2.19
-2.84
-3.65
-4.56
-5.53
-6.52
-7.50
-8.42
-9.27
-9.94
-10.31
-10.23
-9.60
-8.39
-6.67
-4.62
-2.39
-0.19
1.80
3.39
4.44
4.92
4.94
4.78
4.77
5.18
6.12
7.52
9.19
10.85
12.31
13.44
14.23
14.72
15.04
15.24
15.39
15.42
15.28
14.88
14.21
13.31
12.25
11.06
9.65
7.89
5.66
2.88
-0.36
-3.88
-7.46
-10.85
-13.86
-16.32
-18.18
-19.47
-20.32
-20.84
-21.08
-20.99
-20.47
-19.44
-17.93
-16.13
-14.25
-12.45
-10.71
-8.94
-7.00
-4.86
-2.60
-0.37
1.72
3.69
5.62
7.62
9.71
11.80
13.75
15.36
16.52
17.21
17.49
17.53
17.48
17.53
17.80
18.33
19.11
20.00
20.84
21.47
21.75
21.66
21.26
20.66
19.95
19.18
18.33
17.29
15.93
14.10
11.71
8.73
5.25
1.42
-2.49
-6.22
-9.47
-12.03
-13.77
-14.67
-14.78
-14.20
-12.98
-11.18
-8.77
-5.81
-2.35
1.41
5.21
8.72
11.69
13.99
15.68
16.97
18.10
19.25
20.46
21.62
22.56
23.13
23.25
22.98
22.44
21.70
20.81
19.69
18.21
16.28
13.86
11.04
7.96
4.74
1.44
-1.92
-5.41
-9.01
-12.63
-16.08
-19.14
-21.64
-23.54
-24.90
-25.90
-26.69
-27.32
-27.75
-27.83
-27.43
-26.51
-25.16
-23.59
-22.00
-20.55
-19.31
-18.25
-17.36
-16.64
-16.13
-15.83
-15.69
-15.68
-15.79
-16.07
-16.60
-17.40
-18.35
-19.16
-19.46
-18.94
-17.50
-15.30
-12.70
-10.10
-7.84
-6.05
-4.68
-3.54
-2.43
-1.15
0.42
2.34
4.64
7.31
10.30
13.48
16.61
19.38
21.44
22.52
22.42
21.07
18.51
14.83
10.14
4.62
-1.49
-7.87
-14.14
-19.91
-24.88
-28.85
-31.77
-33.68
-34.66
-34.85
-34.37
-33.40
-32.12
-30.62
-28.95
-27.03
-24.73
-21.95
-18.62
-14.76
-10.40
-5.60
-0.41
5.09
10.79
16.54
22.17
27.55
32.56
37.14
41.22
44.71
47.42
49.15
49.70
48.92
46.87
43.79
40.06
36.09
32.21
28.54
25.11
21.85
18.71
15.68
12.77
9.96
7.19
4.36
1.38
-1.78
-5.13
-8.64
-12.24
-15.86
-19.37
-22.62
-25.46
-27.77
-29.41
-30.27
-30.31
-29.57
-28.17
-26.38
-24.44
-22.52
-20.59
-18.47
-15.95
-12.91
-9.42
-5.75
-2.21
0.95
3.61
5.67
7.08
7.68
7.31
5.82
3.23
-0.28
-4.35
-8.60
-12.60
-16.03
-18.58
-20.02
-20.20
-19.12
-16.95
-14.08
-11.03
-8.32
-6.35
-5.35
-5.30
-6.06
-7.36
-8.91
-10.38
-11.46
-11.95
-11.78
-11.09
-10.24
-9.65
-9.66
-10.37
-11.58
-12.81
-13.47
-13.02
-11.07
-7.46
-2.23
4.43
12.22
20.81
29.84
38.88
47.51
55.24
61.63
66.30
68.99
69.60
68.13
64.61
59.16
51.98
43.41
33.94
24.14
14.57
5.69
-2.22
-9.00
-14.59
-18.91
-21.91
-23.52
-23.79
-22.88
-21.11
-18.86
-16.55
-14.51
-12.94
-11.91
-11.38
-11.26
-11.46
-11.91
-12.59
-13.48
-14.54
-15.71
-16.88
-17.95
-18.82
-19.45
-19.85
-20.06
-20.13
-20.06
-19.74
-18.97
-17.52
-15.29
-12.29
-8.77
-5.07
-1.54
1.53
4.01
5.86
7.16
7.98
8.39
8.46
8.23
7.74
7.05
6.27
5.54
5.02
4.86
5.11
5.73
6.57
7.38
7.92
8.02
7.64
6.91
6.07
5.37
5.00
4.98
5.22
5.52
5.71
5.75
5.68
5.60
5.59
5.62
5.63
5.50
5.17
4.65
3.98
3.21
2.37
1.50
0.63
-0.14
-0.65
-0.73
-0.23
0.83
2.30
3.87
5.23
6.11
6.37
6.05
5.28
4.23
3.08
1.94
0.94
0.18
-0.26
-0.35
-0.17
0.15
0.44
0.57
0.52
0.36
0.24
0.26
0.42
0.61
0.65
0.40
-0.15
-0.91
-1.71
-2.42
-2.99
-3.49
-4.02
-4.66
-5.36
-5.98
-6.43
-6.69
-6.90
-7.26
-7.91
-8.84
-9.84
-10.60
-10.79
-10.20
-8.77
-6.56
-3.73
-0.45
3.01
6.41
9.48
12.03
13.99
15.40
16.35
16.93
17.20
17.17
16.83
16.22
15.34
14.19
12.70
10.81
8.49
5.83
3.02
0.26
-2.31
-4.61
-6.66
-8.45
-9.93
-10.99
-11.51
-11.46
-10.89
-9.95
-8.81
-7.67
-6.68
-5.92
-5.39
-5.08
-4.93
-4.90
-4.95
-5.06
-5.18
-5.28
-5.33
-5.34
-5.36
-5.47
-5.69
-6.01
-6.30
-6.46
-6.41
-6.18
-5.87
-5.60
-5.46
-5.49
-5.69
-5.99
-6.28
-6.43
-6.29
-5.74
-4.70
-3.22
-1.39
0.66
2.81
4.98
7.08
8.99
10.58
11.78
12.59
13.14
13.56
13.97
14.34
14.55
14.43
13.85
12.82
11.44
9.87
8.24
6.64
5.12
3.71
2.46
1.45
0.73
0.35
0.22
0.29
0.44
0.64
0.88
1.20
1.62
2.14
2.70
3.24
3.75
4.25
4.85
5.71
6.96
8.65
10.76
13.14
15.60
17.95
20.03
21.76
23.05
23.87
24.19
24.01
23.35
22.26
20.79
18.97
16.81
14.32
11.49
8.39
5.11
1.78
-1.50
-4.73
-7.94
-11.23
-14.62
-18.02
-21.25
-24.06
-26.24
-27.72
-28.54
-28.89
-28.98
-28.99
-29.00
-29.05
-29.09
-29.06
-28.90
-28.58
-28.08
-27.39
-26.45
-25.21
-23.59
-21.57
-19.17
-16.48
-13.59
-10.54
-7.33
-3.98
-0.57
2.72
5.64
7.97
9.56
10.43
10.68
10.46
9.88
9.00
7.88
6.62
5.34
4.17
3.21
2.47
1.97
1.69
1.69
2.03
2.80
4.01
5.58
7.36
9.14
10.74
12.01
12.88
13.31
13.39
13.19
12.83
12.38
11.89
11.41
10.99
10.61
10.26
9.81
9.13
8.13
6.83
5.41
4.09
3.09
2.48
2.17
1.95
1.54
0.70
-0.69
-2.66
-5.11
-7.79
-10.39
-12.58
-14.10
-14.84
-14.81
-14.13
-12.95
-11.43
-9.76
-8.13
-6.75
-5.76
-5.22
-5.09
-5.24
-5.48
-5.70
-5.81
-5.80
-5.65
-5.38
-5.00
-4.53
-4.02
-3.49
-2.96
-2.42
-1.92
-1.51
-1.31
-1.43
-1.92
-2.71
-3.62
-4.35
-4.66
-4.34
-3.36
-1.85
-0.06
1.74
3.30
4.51
5.36
5.93
6.28
6.44
6.35
5.99
5.41
4.79
4.34
4.25
4.58
5.23
6.00
6.77
7.44
8.01
8.50
8.87
9.05
8.92
8.43
7.58
6.47
5.22
3.93
2.65
1.41
0.17
-1.05
-2.27
-3.47
-4.62
-5.70
-6.67
-7.47
-7.98
-8.07
-7.60
-6.51
-4.85
-2.79
-0.53
1.71
3.80
5.67
7.29
8.69
9.86
10.81
11.52
11.94
12.04
11.76
11.13
10.18
9.02
7.74
6.41
5.05
3.62
2.11
0.53
-1.02
-2.45
-3.64
-4.55
-5.20
-5.68
-6.10
-6.54
-7.08
-7.75
-8.53
-9.40
-10.29
-11.12
-11.82
-12.33
-12.66
-12.85
-12.97
-13.05
-13.09
-13.05
-12.90
-12.60
-12.12
-11.38
-10.31
-8.87
-7.11
-5.19
-3.38
-1.88
-0.83
-0.16
0.30
0.80
1.48
2.38
3.39
4.38
5.22
5.88
6.41
6.88
7.36
7.86
8.33
8.74
9.04
9.28
9.50
9.78
10.13
10.48
10.70
10.67
10.30
9.64
8.76
7.78
6.79
5.76
4.64
3.34
1.83
0.18
-1.53
-3.16
-4.66
-6.01
-7.24
-8.38
-9.43
-10.30
-10.90
-11.12
-10.85
-10.08
-8.86
-7.37
-5.82
-4.41
-3.23
-2.26
-1.38
-0.43
0.64
1.79
2.86
3.67
4.14
4.29
4.29
4.32
4.57
5.09
5.83
6.68
7.54
8.30
8.96
9.55
10.09
10.59
11.02
11.35
11.56
11.62
11.48
11.09
10.40
9.41
8.20
6.88
5.57
4.30
3.07
1.83
0.58
-0.63
-1.74
-2.74
-3.70
-4.79
-6.11
-7.63
-9.14
-10.30
-10.82
-10.55
-9.54
-8.05
-6.35
-4.68
-3.09
-1.58
-0.04
1.61
3.37
5.20
6.98
8.55
9.79
10.61
11.04
11.16
11.10
11.01
10.91
10.80
10.67
10.53
10.43
10.41
10.46
10.49
10.37
10.02
9.43
8.63
7.66
6.52
5.14
3.45
1.44
-0.87
-3.38
-6.01
-8.70
-11.40
-14.09
-16.67
-19.04
-21.08
-22.71
-23.90
-24.64
-24.98
-24.97
-24.65
-24.06
-23.17
-21.96
-20.39
-18.45
-16.20
-13.75
-11.27
-8.90
-6.69
-4.64
-2.69
-0.78
1.08
2.85
4.44
5.76
6.80
7.60
8.21
8.72
9.19
9.63
10.04
10.42
10.74
11.01
11.25
11.47
11.68
11.86
11.97
11.94
11.72
11.30
10.67
9.87
8.92
7.84
6.59
5.13
3.46
1.63
-0.20
-1.80
-3.02
-3.78
-4.19
-4.49
-4.94
-5.73
-6.87
-8.19
-9.38
-10.11
-10.14
-9.42
-8.05
-6.25
-4.28
-2.34
-0.50
1.25
2.96
4.68
6.35
7.87
9.18
10.28
11.27
12.29
13.40
14.55
15.60
16.37
16.72
16.62
16.08
15.13
13.78
12.02
9.82
7.25
4.40
1.47
-1.36
-3.89
-5.98
-7.58
-8.72
-9.55
-10.27
-11.13
-12.27
-13.77
-15.54
-17.39
-19.11
-20.52
-21.50
-22.00
-22.02
-21.61
-20.81
-19.72
-18.40
-16.91
-15.25
-13.38
-11.20
-8.68
-5.85
-2.88
-0.00
2.59
4.80
6.69
8.40
10.03
11.57
12.88
13.76
14.10
13.93
13.41
12.74
12.07
11.50
11.10
10.93
11.07
11.57
12.39
13.40
14.37
15.11
15.48
15.40
14.86
13.89
12.52
10.80
8.77
6.50
4.04
1.48
-1.10
-3.58
-5.89
-7.96
-9.79
-11.45
-13.02
-14.59
-16.22
-17.94
-19.76
-21.66
-23.54
-25.19
-26.39
-26.88
-26.55
-25.44
-23.77
-21.78
-19.68
-17.55
-15.38
-13.10
-10.69
-8.20
-5.70
-3.24
-0.81
1.64
4.17
6.74
9.19
11.33
12.97
14.06
14.65
14.92
15.02
15.06
15.04
14.89
14.54
13.90
12.99
11.85
10.55
9.19
7.82
6.46
5.10
3.67
2.13
0.43
-1.41
-3.35
-5.34
-7.31
-9.17
-10.80
-12.04
-12.80
-13.07
-12.93
-12.53
-11.96
-11.23
-10.22
-8.84
-7.01
-4.83
-2.46
-0.14
1.98
3.79
5.26
6.40
7.23
7.79
8.10
8.23
8.22
8.11
7.88
7.52
7.01
6.35
5.57
4.70
3.82
3.00
2.33
1.89
1.74
1.87
2.21
2.64
3.07
3.46
3.84
4.23
4.63
4.95
5.05
4.76
4.02
2.87
1.51
0.18
-0.88
-1.50
-1.64
-1.35
-0.83
-0.30
-0.03
-0.17
-0.73
-1.50
-2.10
-2.12
-1.28
0.45
2.82
5.39
7.71
9.42
10.36
10.56
10.18
9.41
8.41
7.33
6.25
5.21
4.21
3.20
2.08
0.78
-0.76
-2.54
-4.50
-6.56
-8.61
-10.50
-12.06
-13.16
-13.73
-13.81
-13.49
-12.94
-12.24
-11.42
-10.45
-9.33
-8.09
-6.84
-5.71
-4.70
-3.69
-2.49
-0.94
0.96
3.06
5.05
6.61
7.55
7.85
7.62
7.07
6.40
5.77
5.26
4.91
4.67
4.48
4.20
3.67
2.69
1.16
-0.94
-3.50
-6.37
-9.38
-12.42
-15.40
-18.21
-20.66
-22.44
-23.22
-22.73
-20.91
-17.92
-14.14
-10.03
-5.97
-2.17
1.29
4.51
7.55
10.45
13.15
15.56
17.58
19.15
20.23
20.81
20.83
20.28
19.17
17.61
15.79
13.90
12.12
10.47
8.88
7.19
5.25
3.05
0.69
-1.63
-3.65
-5.17
-6.08
-6.37
-6.10
-5.37
-4.28
-2.95
-1.51
-0.05
1.37
2.69
3.86
4.84
5.56
6.00
6.11
5.92
5.39
4.48
3.10
1.20
-1.18
-3.84
-6.51
-8.95
-11.05
-12.84
-14.40
-15.76
-16.84
-17.46
-17.44
-16.76
-15.54
-14.04
-12.55
-11.28
-10.36
-9.87
-9.89
-10.43
-11.40
-12.59
-13.61
-14.04
-13.52
-11.86
-9.10
-5.45
-1.26
3.12
7.38
11.26
14.59
17.26
19.25
20.63
21.51
21.98
22.10
21.85
21.17
20.00
18.35
16.33
14.16
12.09
10.36
9.09
8.26
7.74
7.32
6.81
6.12
5.18
4.00
2.57
0.86
-1.15
-3.47
-6.11
-8.94
-11.81
-14.41
-16.36
-17.25
-16.76
-14.84
-11.68
-7.72
-3.47
0.64
4.36
7.57
10.24
12.38
14.01
15.24
16.20
17.08
17.88
18.46
18.52
17.74
15.91
13.06
9.39
5.21
0.81
-3.59
-7.86
-11.85
-15.39
-18.27
-20.27
-21.27
-21.31
-20.55
-19.30
-17.85
-16.47
-15.26
-14.25
-13.39
-12.65
-12.02
-11.55
-11.27
-11.15
-11.08
-10.93
-10.61
-10.11
-9.49
-8.87
-8.32
-7.84
-7.33
-6.62
-5.60
-4.27
-2.76
-1.32
-0.20
0.44
0.63
0.53
0.43
0.67
1.50
3.00
5.10
7.55
9.98
12.07
13.60
14.49
14.76
14.49
13.77
12.65
11.24
9.69
8.20
6.94
5.99
5.27
4.56
3.68
2.54
1.21
-0.13
-1.27
-2.11
-2.65
-2.97
-3.15
-3.20
-3.05
-2.64
-1.99
-1.21
-0.47
0.06
0.31
0.29
0.04
-0.40
-1.05
-1.93
-3.03
-4.24
-5.45
-6.49
-7.31
-7.87
-8.17
-8.14
-7.74
-6.91
-5.67
-4.15
-2.52
-0.92
0.59
2.07
3.57
5.13
6.67
8.05
9.12
9.79
10.07
10.12
10.13
10.26
10.54
10.83
10.90
10.58
9.78
8.67
7.55
6.76
6.51
6.79
7.42
8.17
8.87
9.49
10.07
10.61
10.98
10.98
10.44
9.33
7.84
6.23
4.74
3.47
2.35
1.25
0.06
-1.25
-2.62
-3.95
-5.12
-5.99
-6.47
-6.52
-6.17
-5.53
-4.79
-4.12
-3.66
-3.43
-3.43
-3.65
-4.10
-4.80
-5.71
-6.75
-7.78
-8.70
-9.47
-10.15
-10.81
-11.53
-12.30
-13.08
-13.75
-14.23
-14.45
-14.39
-14.11
-13.68
-13.20
-12.80
-12.61
-12.69
-13.02
-13.47
-13.80
-13.77
-13.23
-12.15
-10.70
-9.09
-7.52
-6.16
-5.04
-4.18
-3.59
-3.30
-3.28
-3.42
-3.51
-3.31
-2.65
-1.51
-0.03
1.55
2.98
4.14
5.03
5.76
6.46
7.21
8.01
8.78
9.40
9.81
10.03
10.11
10.13
10.15
10.15
10.13
10.06
9.96
9.89
9.88
9.95
10.05
10.13
10.12
10.02
9.88
9.71
9.52
9.24
8.83
8.25
7.52
6.74
6.04
5.55
5.38
5.60
6.21
7.12
8.20
9.22
9.98
10.34
10.28
9.90
9.32
8.59
7.58
6.04
3.71
0.49
-3.51
-7.96
-12.42
-16.49
-19.85
-22.31
-23.72
-23.97
-22.99
-20.81
-17.61
-13.65
-9.30
-4.90
-0.69
3.11
6.34
8.84
10.44
11.03
10.59
9.20
7.04
4.32
1.22
-2.11
-5.50
-8.71
-11.47
-13.51
-14.69
-15.03
-14.71
-14.01
-13.18
-12.40
-11.80
-11.47
-11.50
-11.97
-12.90
-14.20
-15.66
-16.98
-17.81
-17.83
-16.83
-14.64
-11.26
-6.81
-1.50
4.39
10.49
16.46
21.91
26.51
29.93
31.94
32.42
31.38
28.92
25.26
20.69
15.60
10.48
5.84
2.15
-0.25
-1.20
-0.74
0.90
3.35
6.16
8.80
10.82
11.86
11.75
10.47
8.12
4.86
0.85
-3.72
-8.51
-13.11
-17.02
-19.81
-21.19
-21.16
-19.89
-17.66
-14.77
-11.51
-8.12
-4.91
-2.22
-0.41
0.30
-0.15
-1.61
-3.74
-6.14
-8.37
-10.08
-10.96
-10.84
-9.68
-7.60
-4.89
-1.92
0.93
3.39
5.32
6.70
7.51
7.79
7.58
6.98
6.19
5.41
4.76
4.27
3.85
3.40
2.86
2.28
1.73
1.27
0.88
0.46
-0.06
-0.70
-1.35
-1.89
-2.26
-2.52
-2.85
-3.44
-4.40
-5.64
-6.90
-7.84
-8.22
-7.93
-7.09
-5.90
-4.58
-3.30
-2.12
-1.06
-0.12
0.69
1.29
1.64
1.71
1.52
1.19
0.87
0.73
0.86
1.27
1.89
2.59
3.28
3.91
4.47
5.00
5.52
6.02
6.49
6.86
7.11
7.18
7.03
6.58
5.79
4.65
3.21
1.57
-0.18
-1.97
-3.78
-5.64
-7.59
-9.66
-11.83
-14.02
-16.03
-17.64
-18.60
-18.74
-18.01
-16.52
-14.49
-12.18
-9.84
-7.63
-5.59
-3.68
-1.83
0.01
1.88
3.77
5.63
7.43
9.17
10.81
12.39
13.89
15.30
16.53
17.48
17.99
17.93
17.24
15.98
14.39
12.78
11.45
10.58
10.16
9.98
9.80
9.39
8.67
7.65
6.43
5.08
3.63
2.06
0.33
-1.59
-3.73
-6.09
-8.60
-11.08
-13.18
-14.48
-14.60
-13.34
-10.77
-7.26
-3.26
0.76
4.45
7.60
10.11
11.90
12.99
13.45
13.40
12.97
12.23
11.13
9.59
7.54
5.04
2.27
-0.50
-3.02
-5.13
-6.76
-7.88
-8.50
-8.62
-8.24
-7.48
-6.52
-5.56
-4.78
-4.26
-3.96
-3.82
-3.79
-3.89
-4.20
-4.74
-5.45
-6.17
-6.70
-6.93
-6.89
-6.71
-6.61
-6.72
-7.12
-7.71
-8.37
-8.92
-9.18
-9.03
-8.37
-7.20
-5.61
-3.75
-1.79
0.11
1.86
3.36
4.60
5.56
6.31
6.92
7.47
8.05
8.66
9.26
9.80
10.21
10.46
10.52
10.36
9.94
9.20
8.12
6.72
5.15
3.61
2.32
1.46
1.12
1.24
1.71
2.39
3.21
4.08
4.93
5.63
6.02
5.95
5.41
4.50
3.43
2.38
1.44
0.53
-0.51
-1.77
-3.18
-4.51
-5.50
-5.89
-5.63
-4.87
-3.85
-2.85
-2.08
-1.60
-1.39
-1.34
-1.36
-1.38
-1.35
-1.23
-0.95
-0.47
0.27
1.25
2.45
3.80
5.22
6.65
8.07
9.44
10.71
11.82
12.67
13.21
13.36
13.08
12.35
11.17
9.52
7.47
5.08
2.46
-0.30
-3.11
-5.91
-8.67
-11.36
-13.94
-16.34
-18.48
-20.26
-21.59
-22.34
-22.41
-21.68
-20.08
-17.64
-14.52
-10.98
-7.34
-3.93
-1.04
1.10
2.31
2.51
1.80
0.39
-1.31
-2.89
-3.99
-4.42
-4.16
-3.27
-1.91
-0.20
1.70
3.69
5.68
7.60
9.45
11.23
12.84
14.13
14.87
14.85
13.96
12.18
9.62
6.47
2.97
-0.62
-4.06
-7.12
-9.63
-11.52
-12.77
-13.41
-13.46
-12.96
-11.98
-10.63
-9.06
-7.40
-5.76
-4.13
-2.45
-0.62
1.43
3.71
6.09
8.40
10.39
11.86
12.65
12.67
11.93
10.48
8.45
5.97
3.20
0.29
-2.61
-5.38
-7.91
-10.14
-11.99
-13.38
-14.27
-14.62
-14.43
-13.75
-12.67
-11.25
-9.53
-7.50
-5.18
-2.62
0.02
2.56
4.77
6.49
7.64
8.24
8.33
8.00
7.33
6.46
5.58
4.97
4.89
5.47
6.70
8.35
10.10
11.67
12.86
13.62
13.95
13.84
13.22
11.99
10.08
7.54
4.53
1.29
-1.98
-5.14
-8.11
-10.84
-13.29
-15.36
-16.94
-17.92
-18.22
-17.83
-16.85
-15.41
-13.69
-11.84
-9.99
-8.18
-6.48
-4.92
-3.55
-2.39
-1.40
-0.44
0.67
2.11
4.00
6.29
8.80
11.29
13.49
15.18
16.23
16.58
16.28
15.42
14.19
12.81
11.55
10.60
10.07
9.96
10.17
10.58
11.05
11.46
11.64
11.46
10.84
9.83
8.60
7.39
6.40
5.69
5.16
4.64
3.98
3.11
2.03
0.80
-0.56
-2.07
-3.71
-5.37
-6.91
-8.12
-8.88
-9.15
-8.97
-8.47
-7.81
-7.13
-6.49
-5.93
-5.36
-4.71
-3.91
-3.00
-2.06
-1.26
-0.69
-0.40
-0.33
-0.37
-0.42
-0.42
-0.37
-0.30
-0.23
-0.16
-0.12
-0.12
-0.18
-0.28
-0.42
-0.57
-0.74
-0.94
-1.22
-1.56
-1.87
-1.97
-1.60
-0.53
1.35
3.97
7.12
10.48
13.71
16.54
18.75
20.18
20.71
20.30
19.01
16.95
14.33
11.29
7.89
4.08
-0.21
-4.91
-9.79
-14.44
-18.45
-21.57
-23.79
-25.32
-26.36
-27.00
-27.10
-26.39
-24.67
-21.94
-18.45
-14.59
-10.68
-6.93
-3.37
0.00
3.18
6.07
8.56
10.62
12.30
13.78
15.21
16.66
18.05
19.17
19.79
19.71
18.88
17.33
15.19
12.68
10.03
7.46
5.12
3.12
1.45
-0.00
-1.36
-2.72
-4.16
-5.68
-7.25
-8.91
-10.76
-12.97
-15.68
-18.90
-22.49
-26.13
-29.42
-31.99
-33.62
-34.27
-34.06
-33.15
-31.64
-29.56
-26.87
-23.60
-19.86
-15.90
-11.94
-8.18
-4.69
-1.47
1.49
4.18
6.48
8.28
9.52
10.18
10.36
10.19
9.81
9.34
8.83
8.30
7.74
7.14
6.53
5.94
5.44
5.07
4.83
4.66
4.43
3.99
3.21
2.03
0.50
-1.25
-3.07
-4.80
-6.32
-7.54
-8.43
-8.98
-9.25
-9.33
-9.33
-9.32
-9.30
-9.17
-8.77
-7.97
-6.74
-5.13
-3.30
-1.35
0.65
2.72
4.93
7.31
9.80
12.25
14.41
16.05
16.98
17.19
16.80
16.01
15.03
13.96
12.84
11.67
10.53
9.50
8.70
8.13
7.66
7.07
6.15
4.82
3.20
1.55
0.09
-1.07
-1.98
-2.76
-3.52
-4.30
-5.06
-5.78
-6.53
-7.37
-8.38
-9.52
-10.61
-11.41
-11.75
-11.62
-11.19
-10.73
-10.48
-10.51
-10.68
-10.70
-10.19
-8.92
-6.77
-3.83
-0.33
3.43
7.19
10.69
13.74
16.13
17.72
18.40
18.15
17.09
15.37
13.23
10.87
8.43
6.00
3.64
1.36
-0.80
-2.85
-4.70
-6.26
-7.35
-7.81
-7.56
-6.65
-5.31
-3.88
-2.72
-2.15
-2.28
-3.10
-4.44
-6.09
-7.84
-9.52
-11.05
-12.42
-13.65
-14.72
-15.57
-16.05
-16.03
-15.40
-14.12
-12.22
-9.75
-6.81
-3.53
-0.11
3.18
6.02
8.18
9.63
10.52
11.16
11.81
12.65
13.69
14.85
16.06
17.30
18.54
19.73
20.70
21.22
21.11
20.28
18.85
17.06
15.21
13.53
12.16
11.06
10.10
9.12
8.00
6.78
5.58
4.57
3.84
3.39
3.14
2.98
2.91
2.99
3.32
3.93
4.71
5.43
5.84
5.78
5.28
4.51
3.71
3.07
2.58
2.12
1.49
0.51
-0.88
-2.61
-4.51
-6.39
-8.10
-9.53
-10.63
-11.37
-11.74
-11.77
-11.51
-11.00
-10.29
-9.32
-7.99
-6.20
-3.95
-1.39
1.22
3.53
5.29
6.35
6.78
6.81
6.68
6.60
6.65
6.79
6.95
7.12
7.42
8.14
9.59
11.97
15.21
18.97
22.73
26.00
28.52
30.28
31.49
32.37
33.05
33.48
33.45
32.73
31.07
28.24
24.06
18.42
11.32
2.96
-6.18
-15.45
-24.16
-31.79
-38.14
-43.36
-47.89
-52.25
-56.85
-61.90
-67.38
-73.02
-78.38
-82.92
-86.05
-87.33
-86.59
-83.97
-79.92
-74.95
-69.52
-63.86
-57.94
-51.66
-44.90
-37.69
-30.16
-22.55
-15.10
-7.93
-0.99
6.01
13.56
22.22
32.39
44.01
56.46
68.54
78.76
85.82
88.95
88.17
84.17
78.02
70.70
62.74
54.12
44.41
33.21
20.49
6.91
-6.32
-17.68
-25.83
-29.98
-30.11
-26.84
-21.19
-14.15
-6.43
1.60
9.89
18.50
27.36
36.24
44.74
52.33
58.58
63.20
66.07
67.26
66.94
65.35
62.77
59.48
55.73
51.77
47.85
44.17
40.93
38.21
35.98
34.06
32.19
30.12
27.68
24.80
21.54
17.93
13.96
9.54
4.57
-1.05
-7.27
-13.96
-20.91
-27.88
-34.64
-40.97
-46.71
-51.70
-55.77
-58.81
-60.71
-61.39
-60.79
-58.92
-55.87
-51.85
-47.13
-42.05
-36.94
-32.07
-27.67
-23.90
-20.86
-18.63
-17.16
-16.34
-15.95
-15.70
-15.29
-14.47
-13.04
-10.92
-8.18
-5.03
-1.80
1.11
3.36
4.73
5.14
4.63
3.37
1.54
-0.68
-3.10
-5.54
-7.85
-9.88
-11.52
-12.69
-13.37
-13.60
-13.47
-13.09
-12.59
-12.07
-11.51
-10.83
-9.89
-8.55
-6.69
-4.29
-1.41
1.83
5.23
8.59
11.71
14.42
16.58
18.14
19.02
19.21
18.68
17.45
15.61
13.32
10.85
8.44
6.30
4.53
3.13
2.06
1.24
0.64
0.26
0.17
0.41
0.97
1.78
2.68
3.52
4.15
4.49
4.52
4.24
3.65
2.77
1.60
0.13
-1.55
-3.38
-5.19
-6.81
-8.05
-8.77
-8.97
-8.73
-8.22
-7.65
-7.12
-6.68
-6.25
-5.77
-5.19
-4.55
-3.93
-3.44
-3.13
-3.00
-3.00
-3.05
-3.11
-3.15
-3.13
-3.00
-2.69
-2.12
-1.24
-0.05
1.36
2.86
4.26
5.37
6.06
6.21
5.79
4.83
3.41
1.68
-0.17
-1.98
-3.57
-4.80
-5.56
-5.77
-5.43
-4.64
-3.54
-2.32
-1.10
0.05
1.14
2.18
3.12
3.87
4.25
4.16
3.56
2.51
1.21
-0.13
-1.28
-2.05
-2.34
-2.13
-1.51
-0.61
0.43
1.46
2.37
3.05
3.39
3.23
2.48
1.07
-0.91
-3.32
-5.96
-8.63
-11.17
-13.47
-15.47
-17.12
-18.42
-19.44
-20.25
-20.92
-21.55
-22.16
-22.71
-23.09
-23.08
-22.44
-20.96
-18.58
-15.36
-11.55
-7.44
-3.30
0.73
4.61
8.33
11.84
15.01
17.71
19.83
21.41
22.59
23.53
24.35
25.02
25.40
25.32
24.65
23.42
21.79
19.95
18.11
16.39
14.81
13.37
12.04
10.86
9.91
9.26
8.91
8.81
8.89
9.10
9.42
9.91
10.60
11.40
12.15
12.65
12.73
12.35
11.60
10.62
9.48
8.15
6.49
4.37
1.70
-1.49
-5.13
-9.20
-13.68
-18.61
-23.91
-29.41
-34.81
-39.73
-43.74
-46.43
-47.38
-46.23
-42.70
-36.74
-28.58
-18.79
-8.16
2.41
12.13
20.48
27.25
32.50
36.45
39.39
41.54
43.05
43.95
44.23
43.87
42.90
41.46
39.79
38.13
36.70
35.60
34.83
34.26
33.73
33.10
32.22
30.98
29.27
27.03
24.23
20.92
17.18
13.11
8.79
4.26
-0.43
-5.29
-10.31
-15.46
-20.70
-25.86
-30.64
-34.62
-37.35
-38.52
-38.06
-36.20
-33.41
-30.19
-26.94
-23.81
-20.78
-17.72
-14.51
-11.15
-7.67
-4.11
-0.41
3.52
7.82
12.49
17.43
22.44
27.25
31.70
35.67
39.15
42.11
44.56
46.50
48.00
49.20
50.23
51.20
52.04
52.51
52.27
51.02
48.68
45.41
41.51
37.26
32.79
27.96
22.53
16.21
8.87
0.59
-8.35
-17.52
-26.47
-34.80
-42.26
-48.79
-54.48
-59.56
-64.27
-68.81
-73.25
-77.56
-81.58
-85.15
-88.06
-90.18
-91.54
-92.35
-93.01
-93.91
-95.34
-97.31
-99.66
-102.15
-104.65
-107.19
-109.87
-112.69
-115.39
-117.38
-117.88
-116.17
-111.80
-104.82
-95.70
-85.08
-73.58
-61.58
-49.37
-37.33
-26.15
-16.82
-10.33
-7.18
-6.98
-8.38
-9.40
-8.02
-2.85
6.46
19.23
33.94
48.69
61.67
71.54
77.69
80.26
79.97
77.73
74.25
69.93
65.01
59.81
55.08
51.90
51.33
53.90
59.22
66.05
72.67
77.53
79.79
79.47
77.28
74.16
70.84
67.58
64.25
60.55
56.37
51.90
47.43
43.07
38.48
33.00
26.01
17.40
7.78
-1.70
-9.87
-16.03
-20.12
-22.46
-23.36
-22.86
-20.74
-16.82
-11.23
-4.49
2.61
9.28
14.85
18.93
21.35
22.23
21.89
20.79
19.33
17.80
16.26
14.57
12.44
9.54
5.58
0.34
-6.15
-13.49
-20.96
-27.61
-32.61
-35.50
-36.37
-35.77
-34.44
-33.04
-31.94
-31.18
-30.54
-29.68
-28.35
-26.41
-23.92
-21.08
-17.98
-14.55
-10.52
-5.59
0.34
7.04
13.97
20.49
26.11
30.56
33.80
35.84
36.62
36.00
33.90
30.40
25.87
20.85
15.89
11.45
7.73
4.74
2.28
0.12
-1.96
-4.07
-6.11
-7.83
-8.89
-9.04
-8.24
-6.66
-4.70
-2.81
-1.41
-0.88
-1.39
-2.94
-5.30
-8.01
-10.53
-12.42
-13.49
-13.84
-13.83
-13.80
-13.89
-14.06
-14.10
-13.89
-13.46
-13.00
-12.74
-12.78
-13.09
-13.51
-13.94
-14.40
-15.08
-16.18
-17.76
-19.69
-21.68
-23.40
-24.62
-25.28
-25.53
-25.60
-25.72
-26.04
-26.55
-27.06
-27.29
-26.98
-26.07
-24.70
-23.18
-21.81
-20.72
-19.83
-18.88
-17.58
-15.80
-13.51
-10.83
-7.82
-4.53
-1.03
2.57
6.01
9.07
11.64
13.85
16.13
19.01
22.91
27.90
33.61
39.33
44.23
47.70
49.57
50.18
50.15
50.17
50.69
51.82
53.36
54.95
56.25
56.99
56.91
55.69
52.93
48.16
41.17
32.19
22.09
12.21
4.00
-1.51
-4.09
-4.36
-3.57
-3.07
-3.94
-6.70
-11.35
-17.52
-24.59
-31.89
-38.65
-44.19
-47.89
-49.33
-48.32
-44.89
-39.36
-32.35
-24.78
-17.81
-12.61
-9.93
-9.83
-11.64
-14.14
-16.10
-16.80
-16.28
-15.35
-15.33
-17.70
-23.93
-35.18
-52.05
-74.09
-99.46
-124.96
-146.77
-161.70
-168.41
-167.84
-162.51
-155.10
-147.02
-137.92
-126.27
-110.61
-90.71
-67.87
-44.33
-22.14
-2.35
15.23
31.65
47.99
64.79
81.75
98.04
112.64
124.90
134.74
142.54
148.80
153.68
156.79
157.35
154.66
148.57
139.73
129.43
119.20
110.26
103.22
98.02
94.07
90.56
86.74
82.17
76.76
70.85
64.99
59.80
55.74
52.96
51.27
50.27
49.53
48.81
48.06
47.38
46.82
46.22
45.28
43.68
41.26
38.01
33.98
29.11
23.18
15.93
7.21
-2.78
-13.56
-24.53
-35.12
-44.98
-53.92
-61.82
-68.60
-74.12
-78.37
-81.48
-83.78
-85.84
-88.38
-92.15
-97.69
-105.12
-113.95
-123.16
-131.42
-137.45
-140.36
-139.75
-135.74
-128.80
-119.58
-108.73
-96.74
-83.81
-69.89
-54.78
-38.37
-20.81
-2.54
15.81
33.59
50.11
64.75
76.93
86.30
92.97
97.54
100.89
103.75
106.21
107.59
106.70
102.51
94.69
83.87
71.33
58.47
46.24
34.93
24.30
13.94
3.63
-6.49
-15.98
-24.34
-31.19
-36.44
-40.27
-42.99
-44.79
-45.74
-45.71
-44.55
-42.23
-38.91
-34.86
-30.33
-25.42
-20.08
-14.18
-7.71
-0.91
5.79
11.87
16.92
20.81
23.69
25.90
27.81
29.64
31.44
33.15
34.63
35.76
36.49
36.85
36.89
36.70
36.36
35.92
35.47
35.04
34.69
34.43
34.28
34.22
34.25
34.33
34.43
34.46
34.29
33.84
33.06
32.00
30.76
29.47
28.20
26.91
25.49
23.76
21.58
18.85
15.61
11.97
8.15
4.45
1.12
-1.68
-3.97
-5.89
-7.69
-9.51
-11.37
-13.18
-14.76
-15.99
-16.87
-17.46
-17.86
-18.14
-18.33
-18.43
-18.44
-18.36
-18.21
-17.97
-17.62
-17.10
-16.39
-15.44
-14.26
-12.84
-11.24
-9.55
-7.88
-6.34
-5.02
-3.93
-3.01
-2.21
-1.47
-0.82
-0.32
-0.04
0.01
-0.10
-0.22
-0.23
-0.04
0.28
0.60
0.71
0.50
-0.08
-0.97
-2.03
-3.12
-4.12
-4.96
-5.64
-6.18
-6.54
-6.70
-6.57
-6.09
-5.22
-4.02
-2.59
-1.06
0.53
2.20
3.98
5.91
7.90
9.78
11.33
12.32
12.63
12.22
11.15
9.52
7.49
5.18
2.67
-0.02
-2.90
-5.97
-9.22
-12.55
-15.82
-18.88
-21.53
-23.60
-24.92
-25.39
-25.07
-24.22
-23.25
-22.65
-22.69
-23.39
-24.46
-25.48
-26.15
-26.43
-26.50
-26.66
-27.05
-27.58
-27.95
-27.81
-26.96
-25.46
-23.58
-21.61
-19.69
-17.73
-15.50
-12.74
-9.28
-5.08
-0.16
5.51
11.96
19.14
26.69
33.99
40.24
44.73
47.14
47.68
46.96
45.70
44.49
43.53
42.70
41.68
40.12
37.75
34.49
30.35
25.52
20.30
15.10
10.32
6.28
3.08
0.65
-1.22
-2.73
-4.00
-5.02
-5.74
-6.13
-6.23
-6.15
-5.97
-5.76
-5.52
-5.24
-4.91
-4.58
-4.33
-4.23
-4.27
-4.39
-4.49
-4.47
-4.31
-4.02
-3.69
-3.42
-3.28
-3.29
-3.41
-3.54
-3.57
-3.37
-2.88
-2.10
-1.12
-0.14
0.67
1.15
1.27
1.09
0.75
0.35
-0.08
-0.64
-1.46
-2.68
-4.30
-6.21
-8.12
-9.72
-10.77
-11.18
-11.04
-10.57
-10.00
-9.51
-9.18
-9.00
-8.90
-8.85
-8.84
-8.91
-9.08
-9.35
-9.66
-9.92
-10.06
-10.05
-9.95
-9.84
-9.76
-9.68
-9.49
-9.03
-8.26
-7.24
-6.12
-5.08
-4.19
-3.44
-2.79
-2.20
-1.71
-1.36
-1.14
-0.99
-0.78
-0.44
0.01
0.46
0.80
1.00
1.17
1.49
2.12
3.07
4.25
5.46
6.52
7.32
7.82
8.06
8.08
7.95
7.71
7.41
7.06
6.66
6.20
5.68
5.14
4.63
4.26
4.05
3.99
3.97
3.85
3.54
3.03
2.39
1.73
1.15
0.67
0.27
-0.13
-0.58
-1.11
-1.73
-2.44
-3.21
-4.01
-4.83
-5.60
-6.25
-6.69
-6.90
-6.86
-6.66
-6.41
-6.20
-6.10
-6.11
-6.21
-6.38
-6.60
-6.86
-7.13
-7.35
-7.46
-7.45
-7.34
-7.21
-7.12
-7.04
-6.87
-6.45
-5.68
-4.56
-3.18
-1.68
-0.18
1.24
2.57
3.82
5.00
6.10
7.05
7.77
8.09
7.83
6.86
5.15
2.80
0.08
-2.65
-5.03
-6.71
-7.46
-7.16
-5.85
-3.71
-1.05
1.75
4.38
6.60
8.33
9.59
10.40
10.73
10.53
9.77
8.50
6.88
5.14
3.53
2.21
1.26
0.71
0.54
0.76
1.34
2.26
3.48
4.89
6.35
7.69
8.71
9.21
9.02
8.09
6.48
4.37
2.05
-0.20
-2.17
-3.71
-4.80
-5.51
-5.96
-6.32
-6.71
-7.21
-7.84
-8.55
-9.26
-9.92
-10.55
-11.14
-11.73
-12.30
-12.75
-12.98
-12.86
-12.29
-11.27
-9.88
-8.30
-6.71
-5.24
-3.94
-2.74
-1.56
-0.30
0.98
2.18
3.14
3.75
3.95
3.81
3.43
2.94
2.51
2.30
2.42
2.84
3.43
3.95
4.18
4.02
3.53
2.92
2.42
2.17
2.19
2.41
2.72
3.04
3.35
3.64
3.89
4.02
3.93
3.53
2.79
1.75
0.52
-0.79
-2.07
-3.27
-4.39
-5.40
-6.27
-6.94
-7.39
-7.62
-7.64
-7.54
-7.38
-7.22
-7.09
-6.99
-6.86
-6.57
-5.94
-4.81
-3.18
-1.22
0.77
2.42
3.49
3.95
3.98
3.84
3.73
3.75
3.94
4.29
4.79
5.43
6.11
6.63
6.77
6.42
5.60
4.52
3.41
2.39
1.47
0.51
-0.60
-1.90
-3.28
-4.57
-5.61
-6.35
-6.86
-7.24
-7.63
-8.11
-8.68
-9.33
-9.99
-10.53
-10.78
-10.53
-9.63
-8.06
-5.95
-3.57
-1.25
0.75
2.31
3.47
4.36
5.10
5.75
6.27
6.63
6.79
6.82
6.81
6.86
7.01
7.24
7.45
7.54
7.42
7.03
6.42
5.69
4.99
4.42
4.05
3.80
3.55
3.15
2.53
1.71
0.81
-0.06
-0.81
-1.47
-2.13
-2.91
-3.91
-5.11
-6.43
-7.69
-8.77
-9.64
-10.33
-10.98
-11.60
-12.16
-12.50
-12.45
-11.91
-10.96
-9.76
-8.50
-7.30
-6.19
-5.14
-4.10
-3.09
-2.09
-1.14
-0.23
0.61
1.31
1.82
2.09
2.11
1.98
1.80
1.67
1.67
1.82
2.11
2.49
2.90
3.26
3.49
3.59
3.57
3.50
3.41
3.30
3.13
2.89
2.61
2.39
2.31
2.36
2.48
2.50
2.30
1.87
1.29
0.71
0.20
-0.23
-0.67
-1.19
-1.78
-2.36
-2.76
-2.89
-2.71
-2.33
-1.88
-1.45
-1.07
-0.68
-0.18
0.45
1.17
1.85
2.34
2.54
2.48
2.25
1.99
1.79
1.69
1.63
1.57
1.48
1.37
1.28
1.24
1.24
1.26
1.26
1.21
1.10
0.96
0.81
0.68
0.58
0.51
0.50
0.52
0.56
0.58
0.56
0.50
0.40
0.29
0.21
0.16
0.14
0.14
0.11
0.02
-0.14
-0.40
-0.73
-1.05
-1.27
-1.26
-0.96
-0.35
0.49
1.42
2.26
2.88
3.19
3.21
3.03
2.79
2.57
2.39
2.23
2.03
1.79
1.54
1.32
1.16
1.02
0.88
0.69
0.49
0.33
0.26
0.24
0.19
0.02
-0.29
-0.71
-1.12
-1.41
-1.52
-1.45
-1.25
-1.00
-0.75
-0.54
-0.37
-0.30
-0.34
-0.54
-0.91
-1.42
-2.01
-2.58
-3.04
-3.33
-3.46
-3.45
-3.36
-3.18
-2.90
-2.52
-2.06
-1.58
-1.11
-0.65
-0.16
0.44
1.16
1.94
2.68
3.27
3.66
3.82
3.72
3.31
2.54
1.40
0.02
-1.34
-2.42
-3.02
-3.14
-2.98
-2.84
-2.94
-3.34
-3.95
-4.53
-4.91
-5.03
-4.98
-4.89
-4.87
-4.92
-4.96
-4.89
-4.65
-4.27
-3.88
-3.63
-3.66
-4.03
-4.70
-5.56
-6.48
-7.27
-7.84
-8.13
-8.16
-7.96
-7.57
-6.96
-6.08
-4.90
-3.39
-1.66
0.13
1.81
3.24
4.35
5.14
5.69
6.08
6.35
6.53
6.59
6.55
6.45
6.38
6.43
6.66
7.03
7.42
7.64
7.57
7.15
6.41
5.48
4.53
3.68
3.02
2.57
2.27
2.06
1.83
1.51
1.08
0.54
-0.07
-0.70
-1.30
-1.84
-2.28
-2.60
-2.73
-2.63
-2.28
-1.72
-1.03
-0.28
0.49
1.27
2.06
2.85
3.53
3.98
4.05
3.69
2.92
1.87
0.74
-0.29
-1.07
-1.50
-1.61
-1.49
-1.34
-1.37
-1.78
-2.66
-4.01
-5.69
-7.45
-9.02
-10.10
-10.52
-10.21
-9.28
-7.96
-6.50
-5.12
-3.94
-2.95
-2.10
-1.30
-0.54
0.13
0.58
0.68
0.40
-0.22
-0.98
-1.63
-1.96
-1.92
-1.59
-1.19
-0.91
-0.86
-0.99
-1.16
-1.24
-1.15
-0.86
-0.41
0.20
0.99
1.96
3.03
4.03
4.75
5.00
4.70
3.93
2.88
1.74
0.67
-0.29
-1.20
-2.12
-3.08
-4.04
-4.94
-5.70
-6.31
-6.79
-7.19
-7.54
-7.81
-7.95
-7.90
-7.61
-7.12
-6.47
-5.74
-4.95
-4.07
-3.08
-1.95
-0.77
0.34
1.22
1.78
2.03
2.08
2.09
2.17
2.36
2.66
3.04
3.45
3.88
4.28
4.64
4.93
5.15
5.33
5.47
5.57
5.55
5.36
4.97
4.43
3.84
3.33
2.98
2.82
2.79
2.83
2.84
2.75
2.53
2.14
1.58
0.86
0.07
-0.69
-1.25
-1.50
-1.37
-0.91
-0.25
0.42
0.95
1.26
1.38
1.39
1.39
1.42
1.48
1.54
1.58
1.53
1.37
1.05
0.58
0.05
-0.38
-0.53
-0.28
0.38
1.35
2.43
3.46
4.32
5.04
5.67
6.28
6.86
7.34
7.65
7.78
7.79
7.79
7.86
8.00
8.10
8.04
7.75
7.26
6.68
6.10
5.50
4.72
3.56
1.92
-0.14
-2.41
-4.64
-6.66
-8.46
-10.12
-11.74
-13.34
-14.81
-16.01
-16.77
-16.97
-16.55
-15.48
-13.81
-11.62
-9.08
-6.40
-3.85
-1.65
0.07
1.32
2.22
2.94
3.63
4.32
4.91
5.24
5.19
4.73
4.02
3.31
2.82
2.66
2.82
3.18
3.63
4.10
4.58
5.03
5.39
5.54
5.38
4.94
4.34
3.73
3.23
2.88
2.58
2.26
1.87
1.44
1.07
0.84
0.73
0.64
0.38
-0.24
-1.35
-2.99
-5.03
-7.26
-9.38
-11.05
-11.97
-11.92
-10.85
-8.87
-6.32
-3.66
-1.37
0.24
1.13
1.57
2.02
2.88
4.31
6.13
7.91
9.20
9.71
9.44
8.66
7.77
7.09
6.77
6.75
6.85
6.91
6.87
6.81
6.87
7.10
7.45
7.72
7.72
7.34
6.59
5.58
4.44
3.21
1.92
0.61
-0.59
-1.44
-1.67
-1.12
0.11
1.70
3.16
4.01
3.98
3.04
1.44
-0.47
-2.36
-4.07
-5.53
-6.77
-7.79
-8.50
-8.78
-8.52
-7.68
-6.35
-4.68
-2.91
-1.25
0.13
1.18
1.97
2.63
3.35
4.20
5.19
6.20
7.09
7.75
8.16
8.40
8.59
8.81
9.08
9.33
9.48
9.47
9.33
9.13
8.92
8.70
8.41
7.97
7.39
6.80
6.38
6.29
6.53
6.95
7.31
7.45
7.26
6.78
6.09
5.27
4.35
3.38
2.40
1.52
0.80
0.25
-0.20
-0.75
-1.56
-2.77
-4.41
-6.41
-8.55
-10.61
-12.34
-13.59
-14.34
-14.55
-14.18
-13.12
-11.35
-8.99
-6.43
-4.16
-2.60
-1.88
-1.82
-2.03
-2.22
-2.40
-2.79
-3.68
-5.11
-6.80
-8.28
-9.20
-9.51
-9.57
-9.84
-10.63
-11.93
-13.37
-14.41
-14.69
-14.12
-12.99
-11.72
-10.70
-10.14
-9.98
-10.03
-10.01
-9.70
-8.95
-7.60
-5.62
-3.01
0.04
3.18
5.92
7.82
8.62
8.44
7.69
7.00
6.93
7.76
9.42
11.50
13.51
15.07
16.04
16.55
16.84
17.14
17.52
17.90
18.09
17.91
17.22
16.01
14.32
12.27
10.02
7.73
5.59
3.75
2.29
1.26
0.64
0.40
0.46
0.71
0.96
0.96
0.47
-0.67
-2.48
-4.78
-7.28
-9.68
-11.74
-13.39
-14.67
-15.69
-16.58
-17.42
-18.21
-18.91
-19.45
-19.77
-19.88
-19.82
-19.64
-19.29
-18.59
-17.15
-14.57
-10.59
-5.31
0.72
6.64
11.54
14.81
16.36
16.60
16.24
16.01
16.36
17.39
18.90
20.56
22.07
23.22
23.92
24.10
23.75
22.86
21.52
19.87
18.10
16.36
14.70
13.07
11.39
9.64
7.88
6.18
4.62
3.18
1.74
0.21
-1.46
-3.21
-4.92
-6.53
-8.07
-9.63
-11.24
-12.82
-14.10
-14.80
-14.72
-13.90
-12.55
-11.00
-9.50
-8.17
-6.98
-5.84
-4.66
-3.46
-2.34
-1.43
-0.85
-0.67
-0.82
-1.19
-1.61
-1.94
-2.09
-2.05
-1.85
-1.54
-1.17
-0.79
-0.43
-0.15
-0.01
-0.01
-0.12
-0.29
-0.52
-0.80
-1.20
-1.72
-2.35
-3.01
-3.58
-3.99
-4.25
-4.46
-4.76
-5.30
-6.15
-7.29
-8.61
-9.94
-11.08
-11.83
-12.02
-11.60
-10.59
-9.12
-7.40
-5.63
-3.99
-2.59
-1.44
-0.48
0.33
1.05
1.63
2.00
2.09
1.87
1.45
0.97
0.61
0.46
0.51
0.63
0.70
0.60
0.35
0.07
-0.08
0.04
0.49
1.21
2.07
2.89
3.54
3.93
4.08
4.04
3.91
3.76
3.62
3.52
3.47
3.45
3.42
3.34
3.13
2.72
2.09
1.24
0.25
-0.79
-1.77
-2.62
-3.32
-3.89
-4.37
-4.82
-5.30
-5.82
-6.36
-6.85
-7.20
-7.28
-6.93
-6.02
-4.45
-2.26
0.40
3.24
5.90
8.07
9.58
10.44
10.80
10.83
10.66
10.35
9.90
9.33
8.74
8.23
7.91
7.79
7.80
7.86
7.88
7.77
7.49
6.98
6.23
5.26
4.14
2.97
1.86
0.85
-0.08
-1.00
-1.97
-3.00
-4.06
-5.06
-5.93
-6.63
-7.19
-7.72
-8.34
-9.16
-10.22
-11.44
-12.66
-13.66
-14.24
-14.24
-13.61
-12.44
-10.85
-9.03
-7.16
-5.37
-3.72
-2.23
-0.89
0.33
1.43
2.37
3.12
3.64
3.95
4.09
4.12
4.13
4.16
4.25
4.37
4.50
4.60
4.64
4.58
4.38
4.01
3.48
2.82
2.15
1.58
1.20
1.01
0.93
0.85
0.67
0.33
-0.13
-0.65
-1.13
-1.52
-1.78
-1.96
-2.11
-2.35
-2.77
-3.48
-4.48
-5.65
-6.82
-7.71
-8.14
-7.97
-7.21
-5.94
-4.33
-2.56
-0.82
0.71
1.91
2.69
3.09
3.21
3.20
3.20
3.25
3.35
3.43
3.51
3.61
3.86
4.34
5.08
6.01
7.00
7.91
8.64
9.13
9.37
9.38
9.18
8.84
8.43
8.01
7.60
7.07
6.23
4.80
2.55
-0.59
-4.40
-8.42
-12.05
-14.72
-16.07
-16.06
-14.98
-13.31
-11.59
-10.25
-9.50
-9.36
-9.62
-10.00
-10.19
-9.97
-9.20
-7.88
-6.10
-3.99
-1.68
0.68
2.96
5.07
6.92
8.48
9.75
10.73
11.38
11.70
11.67
11.35
10.88
10.45
10.30
10.55
11.25
12.29
13.47
14.52
15.23
15.49
15.35
15.02
14.72
14.61
14.65
14.62
14.24
13.32
11.94
10.37
9.06
8.31
8.25
8.71
9.31
9.66
9.34
8.09
5.74
2.31
-1.88
-6.23
-9.93
-12.24
-12.78
-11.75
-9.89
-8.22
-7.63
-8.55
-10.86
-14.02
-17.38
-20.39
-22.74
-24.31
-25.06
-24.99
-24.15
-22.69
-20.90
-19.13
-17.70
-16.73
-16.18
-15.79
-15.25
-14.32
-12.93
-11.21
-9.40
-7.74
-6.37
-5.24
-4.16
-2.91
-1.38
0.35
1.98
3.21
3.82
3.86
3.62
3.51
3.83
4.63
5.69
6.55
6.81
6.21
4.82
2.90
0.83
-1.05
-2.55
-3.64
-4.40
-4.93
-5.30
-5.55
-5.63
-5.47
-4.95
-3.97
-2.47
-0.53
1.65
3.73
5.43
6.57
7.16
7.36
7.42
7.61
8.17
9.29
11.06
13.46
16.26
19.07
21.35
22.58
22.48
21.08
18.75
16.04
13.46
11.34
9.71
8.40
7.15
5.78
4.25
2.63
1.08
-0.28
-1.38
-2.18
-2.68
-2.89
-2.88
-2.76
-2.71
-2.85
-3.25
-3.83
-4.48
-5.12
-5.75
-6.48
-7.40
-8.51
-9.72
-10.87
-11.79
-12.42
-12.76
-12.83
-12.65
-12.22
-11.55
-10.72
-9.81
-8.85
-7.79
-6.47
-4.71
-2.44
0.20
2.92
5.39
7.34
8.69
9.56
10.13
10.56
11.00
11.49
12.04
12.62
13.16
13.55
13.63
13.23
12.27
10.80
9.01
7.18
5.57
4.31
3.35
2.53
1.65
0.63
-0.42
-1.22
-1.46
-0.96
0.25
1.83
3.31
4.24
4.37
3.72
2.56
1.22
-0.06
-1.21
-2.29
-3.39
-4.49
-5.47
-6.08
-6.11
-5.51
-4.42
-3.12
-1.87
-0.81
0.08
0.91
1.77
2.65
3.42
3.91
4.00
3.69
3.13
2.54
2.09
1.84
1.76
1.75
1.73
1.65
1.57
1.55
1.61
1.69
1.63
1.27
0.58
-0.27
-0.95
-1.14
-0.66
0.34
1.46
2.21
2.24
1.51
0.30
-0.98
-2.00
-2.63
-2.96
-3.25
-3.75
-4.70
-6.25
-8.40
-11.04
-13.87
-16.48
-18.41
-19.32
-19.11
-17.92
-16.09
-14.05
-12.16
-10.70
-9.80
-9.53
-9.86
-10.70
-11.85
-13.07
-14.04
-14.50
-14.24
-13.25
-11.67
-9.80
-7.99
-6.48
-5.34
-4.42
-3.50
-2.42
-1.19
0.06
1.15
1.99
2.63
3.21
3.81
4.44
5.00
5.37
5.57
5.68
5.81
5.98
6.07
5.86
5.22
4.16
2.93
1.83
1.15
0.97
1.17
1.50
1.77
1.89
1.92
2.01
2.26
2.69
3.20
3.66
3.98
4.16
4.23
4.24
4.17
3.93
3.42
2.56
1.41
0.16
-0.97
-1.77
-2.15
-2.18
-2.02
-1.86
-1.81
-1.89
-1.97
-1.87
-1.45
-0.66
0.36
1.40
2.21
2.57
2.43
1.89
1.16
0.52
0.14
0.07
0.21
0.35
0.33
0.07
-0.36
-0.77
-0.99
-0.88
-0.41
0.35
1.26
2.16
2.91
3.46
3.81
4.03
4.20
4.36
4.51
4.55
4.44
4.20
3.91
3.74
3.76
3.94
4.13
4.14
3.88
3.40
2.83
2.38
2.12
2.05
2.05
2.00
1.81
1.47
0.98
0.34
-0.44
-1.31
-2.18
-2.90
-3.37
-3.56
-3.55
-3.51
-3.59
-3.87
-4.31
-4.75
-5.04
-5.03
-4.70
-4.09
-3.30
-2.43
-1.55
-0.72
0.00
0.55
0.89
1.07
1.18
1.33
1.58
1.94
2.27
2.47
2.45
2.29
2.12
2.13
2.40
2.91
3.51
4.00
4.25
4.28
4.21
4.18
4.24
4.35
4.36
4.13
3.67
3.14
2.74
2.59
2.66
2.74
2.58
2.04
1.11
-0.02
-1.18
-2.19
-3.03
-3.70
-4.22
-4.56
-4.64
-4.38
-3.71
-2.62
-1.20
0.39
1.96
3.30
4.24
4.74
4.85
4.69
4.40
4.05
3.68
3.26
2.80
2.31
1.84
1.44
1.16
1.00
0.94
0.92
0.82
0.55
0.04
-0.70
-1.57
-2.41
-3.06
-3.43
-3.54
-3.57
-3.72
-4.18
-5.05
-6.29
-7.76
-9.25
-10.55
-11.44
-11.82
-11.72
-11.31
-10.85
-10.56
-10.55
-10.76
-10.99
-11.03
-10.71
-10.01
-8.98
-7.68
-6.16
-4.44
-2.56
-0.64
1.16
2.72
3.99
5.01
5.83
6.48
6.92
7.10
7.07
6.97
6.97
7.18
7.54
7.85
7.90
7.58
6.96
6.21
5.49
4.84
4.20
3.41
2.41
1.26
0.16
-0.73
-1.36
-1.80
-2.23
-2.84
-3.69
-4.74
-5.86
-6.91
-7.84
-8.70
-9.56
-10.52
-11.54
-12.50
-13.23
-13.56
-13.39
-12.69
-11.45
-9.70
-7.50
-4.92
-2.10
0.77
3.50
5.98
8.19
10.19
12.06
13.88
15.67
17.37
18.90
20.15
21.04
21.57
21.81
21.86
21.80
21.65
21.38
20.89
20.14
19.12
17.93
16.68
15.43
14.17
12.82
11.26
9.47
7.49
5.47
3.55
1.79
0.18
-1.42
-3.12
-5.02
-7.09
-9.19
-11.18
-12.91
-14.35
-15.57
-16.67
-17.76
-18.88
-19.96
-20.90
-21.63
-22.08
-22.25
-22.16
-21.79
-21.08
-19.94
-18.32
-16.21
-13.68
-10.89
-8.05
-5.32
-2.80
-0.50
1.65
3.71
5.71
7.60
9.27
10.65
11.66
12.27
12.43
12.12
11.37
10.30
9.09
7.98
7.11
6.50
6.02
5.53
4.98
4.46
4.13
4.12
4.38
4.69
4.75
4.34
3.39
2.07
0.63
-0.70
-1.80
-2.70
-3.50
-4.30
-5.11
-5.83
-6.32
-6.43
-6.03
-5.09
-3.66
-1.89
-0.01
1.66
2.86
3.44
3.46
3.16
2.84
2.71
2.82
3.07
3.27
3.29
3.09
2.72
2.26
1.76
1.22
0.61
-0.14
-1.07
-2.20
-3.47
-4.77
-5.89
-6.67
-7.06
-7.17
-7.28
-7.66
-8.46
-9.61
-10.86
-11.91
-12.57
-12.84
-12.92
-13.12
-13.72
-14.88
-16.60
-18.77
-21.21
-23.79
-26.55
-29.67
-33.45
-38.07
-43.47
-49.22
-54.62
-58.87
-61.27
-61.33
-58.78
-53.70
-46.61
-38.62
-31.33
-26.40
-24.97
-27.08
-31.72
-37.19
-41.96
-45.33
-47.55
-49.45
-51.76
-54.71
-57.94
-60.87
-63.11
-64.63
-65.62
-66.24
-66.39
-65.75
-63.97
-60.75
-56.00
-49.79
-42.16
-33.06
-22.25
-9.38
5.90
23.67
43.64
65.08
86.86
107.72
126.54
142.57
155.57
165.74
173.45
178.98
182.27
182.92
180.42
174.39
164.85
152.31
137.61
121.76
105.75
90.39
76.25
63.67
52.67
43.02
34.23
25.75
17.14
8.18
-1.04
-10.22
-18.93
-26.74
-33.23
-38.04
-40.93
-41.78
-40.70
-37.99
-34.23
-30.08
-26.17
-22.91
-20.40
-18.45
-16.73
-15.02
-13.34
-11.96
-11.27
-11.65
-13.30
-16.31
-20.70
-26.46
-33.43
-41.26
-49.52
-57.81
-66.03
-74.43
-83.35
-92.94
-102.61
-111.07
-116.46
-117.01
-111.63
-100.28
-84.01
-64.64
-44.23
-24.55
-6.78
8.62
21.79
33.10
42.80
50.79
56.67
60.09
61.13
60.55
59.69
60.02
62.50
67.13
72.91
78.26
81.69
82.35
80.27
76.14
70.77
64.73
58.10
50.69
42.23
32.65
22.11
11.09
0.32
-9.12
-16.01
-19.21
-18.16
-13.24
-5.85
2.00
8.28
11.66
11.83
9.35
5.28
0.77
-3.25
-6.04
-7.01
-5.79
-2.33
2.92
8.96
14.37
17.67
17.82
14.51
8.33
0.58
-7.15
-13.52
-17.74
-19.69
-19.64
-17.82
-14.20
-8.44
-0.33
9.76
20.52
29.94
36.09
37.90
35.74
31.22
26.54
23.55
23.29
25.96
31.29
38.79
47.67
56.67
63.84
66.89
63.98
54.56
39.74
22.01
4.38
-10.66
-21.81
-28.90
-32.40
-32.82
-30.29
-24.63
-15.64
-3.50
11.06
26.89
42.55
56.69
68.18
76.33
80.94
82.44
81.75
80.04
78.39
77.48
77.51
78.38
79.86
81.71
83.52
84.64
84.14
80.90
73.93
62.56
46.57
26.24
2.25
-24.19
-51.46
-77.59
-100.72
-119.47
-133.33
-142.62
-148.09
-150.46
-149.97
-146.45
-139.53
-129.04
-115.31
-99.20
-81.93
-64.85
-49.15
-35.69
-24.97
-17.22
-12.39
-10.23
-10.26
-11.86
-14.29
-16.90
-19.24
-21.16
-22.85
-24.68
-27.05
-30.15
-33.88
-37.86
-41.56
-44.49
-46.33
-47.07
-46.93
-46.27
-45.41
-44.46
-43.25
-41.46
-38.84
-35.34
-31.24
-26.99
-23.02
-19.52
-16.45
-13.62
-10.88
-8.29
-6.08
-4.52
-3.67
-3.36
-3.21
-2.77
-1.73
0.01
2.32
4.97
7.71
10.35
12.79
14.93
16.64
17.77
18.18
17.85
16.95
15.81
14.85
14.42
14.69
15.61
16.92
18.27
19.34
19.96
20.09
19.77
19.07
18.04
16.69
15.03
13.05
10.81
8.43
6.07
3.90
2.11
0.91
0.42
0.66
1.51
2.62
3.63
4.19
4.19
3.76
3.18
2.75
2.63
2.76
2.90
2.82
2.40
1.76
1.10
0.65
0.51
0.59
0.65
0.44
-0.21
-1.34
-2.81
-4.37
-5.77
-6.82
-7.42
-7.63
-7.56
-7.37
-7.17
-7.01
-6.87
-6.77
-6.74
-6.89
-7.28
-7.94
-8.73
-9.46
-9.87
-9.80
-9.21
-8.16
-6.81
-5.25
-3.62
-1.98
-0.45
0.87
1.87
2.51
2.84
2.96
3.05
3.15
3.20
2.97
2.23
0.82
-1.14
-3.27
-5.01
-5.76
-5.14
-3.19
-0.33
2.74
5.41
7.28
8.35
8.92
9.29
9.50
9.19
7.76
4.71
0.04
-5.59
-10.95
-14.61
-15.44
-12.98
-7.60
-0.32
7.63
15.09
21.11
25.12
27.18
27.91
28.28
29.21
31.15
33.83
35.99
35.54
30.01
17.35
-3.63
-33.02
-69.87
-112.20
-157.05
-200.65
-238.66
-266.27
-278.22
-269.45
-236.53
-179.14
-101.14
-10.18
83.79
170.39
239.14
282.99
300.63
296.41
277.69
250.90
219.51
184.41
146.03
106.38
69.67
40.95
23.71
18.44
21.64
28.41
34.23
36.19
33.31
26.22
16.39
5.22
-6.28
-17.43
-27.35
-35.11
-40.01
-41.13
-38.49
-32.72
-24.81
-15.74
-6.48
2.32
10.14
16.58
21.38
24.50
26.18
26.76
26.45
25.16
22.74
19.07
14.36
9.28
4.77
1.92
1.55
4.04
9.14
16.09
23.63
30.16
33.86
32.98
26.38
13.96
-3.07
-22.27
-40.52
-54.84
-63.20
-65.02
-61.17
-53.54
-44.46
-36.09
-30.15
-27.66
-29.08
-34.26
-42.62
-53.22
-64.86
-76.32
-86.58
-95.00
-101.47
-106.32
-110.21
-113.90
-118.01
-122.87
-128.43
-134.23
-139.60
-143.86
-146.48
-147.11
-145.46
-141.06
-133.19
-120.95
-103.54
-80.69
-52.76
-20.67
14.40
51.20
88.36
124.13
156.19
182.00
199.45
207.73
207.80
202.08
193.54
184.51
175.88
167.07
156.59
142.84
124.74
101.97
74.81
44.14
11.48
-20.88
-50.12
-73.42
-88.87
-96.02
-95.91
-90.47
-81.62
-70.57
-57.68
-42.93
-26.51
-9.24
7.47
22.03
33.24
40.47
43.68
43.11
39.14
32.22
23.09
12.95
3.43
-3.64
-6.90
-6.07
-2.22
2.57
6.06
6.98
5.61
3.57
2.88
4.82
9.29
15.05
20.59
25.01
28.44
31.70
35.52
39.90
44.07
46.95
47.87
47.09
45.64
44.79
45.27
46.86
48.43
48.56
46.30
41.64
35.47
29.19
23.98
20.41
18.39
17.52
17.48
18.22
19.79
22.09
24.58
26.34
26.30
23.76
18.61
11.37
2.94
-5.90
-14.76
-23.75
-33.19
-43.26
-53.72
-63.88
-72.97
-80.53
-86.71
-92.15
-97.60
-103.53
-109.87
-116.13
-121.72
-126.23
-129.60
-132.04
-133.82
-135.08
-135.72
-135.42
-133.70
-130.13
-124.34
-116.14
-105.57
-92.89
-78.62
-63.43
-48.13
-33.44
-20.02
-8.31
1.48
9.32
15.39
20.02
23.68
26.84
29.90
33.04
36.20
39.13
41.43
42.68
42.60
41.04
38.09
34.02
29.29
24.32
19.46
14.90
10.74
7.00
3.74
1.02
-1.15
-2.79
-3.94
-4.54
-4.35
-2.95
0.00
4.58
10.42
16.76
22.67
27.38
30.52
32.18
32.78
32.83
32.74
32.73
32.82
32.92
32.96
32.87
32.61
32.14
31.47
30.64
29.83
29.34
29.52
30.76
33.30
37.22
42.26
47.91
53.33
57.61
59.96
60.11
58.39
55.74
53.44
52.65
54.26
58.73
66.18
76.42
88.81
102.00
114.07
123.13
128.18
129.63
128.96
127.54
125.36
120.45
109.65
90.31
62.01
27.16
-9.66
-43.38
-70.13
-88.08
-97.31
-99.10
-95.22
-87.51
-77.89
-68.31
-60.56
-55.88
-54.66
-56.21
-59.00
-61.03
-60.54
-56.66
-49.78
-41.40
-33.56
-27.84
-24.62
-22.79
-19.99
-13.39
-0.79
18.37
42.22
66.36
84.56
90.57
80.31
53.83
15.72
-26.18
-63.63
-90.89
-106.47
-112.84
-114.41
-115.14
-116.88
-119.27
-120.78
-119.87
-115.65
-107.65
-95.38
-78.28
-56.27
-30.44
-3.36
21.69
42.01
56.76
67.23
76.05
85.61
96.86
109.08
120.72
130.57
138.60
145.86
153.57
162.17
170.87
178.04
182.07
182.03
177.88
170.03
158.91
144.87
128.35
110.20
91.50
72.98
54.26
33.68
8.85
-22.13
-59.74
-102.94
-150.34
-201.66
-258.23
-321.75
-391.69
-463.31
-527.42
-573.07
-591.53
-579.53
-539.96
-479.87
-407.39
-329.64
-252.49
-181.22
-120.83
-74.81
-43.14
-21.27
-1.31
24.69
60.92
105.79
152.86
194.13
223.79
240.50
247.12
248.46
248.42
248.33
246.74
240.99
229.03
210.89
189.07
167.40
149.39
136.51
127.84
120.92
113.51
104.89
96.18
89.51
86.41
86.74
88.53
89.01
86.19
79.77
71.05
61.86
53.34
45.36
36.90
27.03
15.77
4.39
-5.53
-13.20
-19.34
-25.85
-34.91
-47.62
-63.36
-79.75
-93.00
-99.18
-95.47
-81.18
-58.13
-30.18
-2.19
21.16
35.94
40.89
37.90
31.20
24.98
21.03
17.93
12.07
-0.00
-19.30
-42.60
-64.04
-77.02
-76.64
-61.70
-35.31
-3.89
25.40
45.56
53.79
52.45
47.11
42.91
41.69
41.61
38.85
30.80
16.96
-0.56
-18.67
-34.98
-48.47
-59.24
-66.52
-69.22
-66.57
-59.15
-49.44
-41.24
-37.60
-39.18
-42.41
-41.38
-30.54
-7.23
27.33
68.32
109.02
142.75
164.45
171.25
162.56
140.01
106.21
66.83
28.97
-0.93
-19.00
-24.84
-21.04
-11.75
-1.01
8.21
14.54
17.54
17.43
14.75
10.08
3.76
-4.25
-14.13
-25.74
-38.08
-49.71
-59.02
-64.98
-67.70
-68.33
-68.44
-69.05
-69.89
-69.58
-66.82
-61.33
-54.62
-49.75
-50.10
-57.69
-72.00
-89.80
-106.22
-116.88
-119.13
-113.05
-101.23
-87.42
-75.00
-65.66
-58.92
-50.96
-38.11
-17.67
10.92
45.61
82.37
116.14
141.93
156.48
158.23
147.14
125.76
99.38
75.10
59.92
58.42
71.46
95.32
122.36
143.40
151.12
142.09
117.36
81.47
40.56
0.45
-34.67
-62.76
-83.36
-96.81
-103.68
-104.58
-100.26
-91.98
-81.48
-70.61
-60.43
-50.49
-39.16
-24.88
-8.06
7.93
17.68
16.30
2.40
-20.12
-42.85
-56.13
-53.14
-32.95
-0.81
34.19
62.85
79.15
81.78
73.51
59.35
44.35
32.08
24.14
20.45
19.97
21.31
23.26
24.91
25.72
25.45
24.03
21.38
17.31
11.41
3.36
-6.90
-18.92
-31.66
-43.76
-53.87
-61.00
-64.62
-64.70
-61.74
-57.00
-52.59
-51.19
-54.98
-64.12
-75.78
-84.45
-83.99
-70.50
-44.45
-10.74
23.54
52.36
73.19
87.28
97.86
107.66
117.33
125.67
131.07
132.98
132.34
130.77
129.30
127.64
124.25
117.17
104.96
87.18
64.31
37.28
7.04
-25.60
-59.72
-93.93
-126.24
-154.16
-175.45
-188.87
-194.77
-194.98
-192.03
-188.11
-184.21
-180.00
-174.41
-166.55
-156.33
-144.62
-132.69
-121.56
-111.61
-102.60
-94.08
-85.74
-77.56
-69.51
-61.31
-52.20
-41.26
-27.80
-11.96
5.23
22.06
36.74
47.99
55.41
59.45
61.06
61.18
60.37
58.78
56.24
52.68
48.30
43.65
39.47
36.30
34.31
33.19
32.28
30.97
28.98
26.53
24.18
22.62
22.29
23.29
25.36
28.12
31.13
33.98
36.35
37.95
38.58
38.14
36.66
34.29
31.24
27.87
24.73
22.68
22.79
26.02
32.84
42.88
54.83
66.76
76.58
82.56
83.77
80.29
73.18
64.15
55.07
47.30
41.31
36.48
31.42
24.84
16.36
6.94
-1.42
-6.63
-7.55
-4.50
1.00
7.02
12.08
15.37
16.47
15.01
10.66
3.72
-3.97
-8.89
-6.67
6.12
30.25
63.24
100.08
135.04
163.47
182.74
192.36
193.30
187.28
176.24
162.03
146.17
129.64
112.81
95.64
78.00
60.13
42.77
26.89
13.45
3.11
-3.92
-7.95
-10.03
-12.02
-16.27
-25.04
-39.61
-59.74
-83.78
-109.39
-134.54
-158.09
-179.73
-199.35
-216.40
-229.78
-238.20
-240.88
-238.00
-230.67
-220.67
-210.21
-201.70
-197.48
-199.03
-205.88
-214.77
-219.83
-214.15
-192.47
-153.62
-101.31
-42.98
13.02
60.23
95.70
119.62
133.82
140.39
140.76
136.17
127.97
117.50
105.30
90.47
70.83
44.52
12.28
-21.90
-51.50
-70.68
-77.46
-75.02
-70.22
-70.00
-78.06
-90.85
-101.70
-103.40
-91.57
-66.26
-31.00
9.55
51.37
90.96
125.08
150.42
165.21
170.30
169.03
165.30
160.98
155.82
145.81
127.14
98.49
62.17
23.00
-13.76
-44.03
-65.63
-77.79
-80.92
-75.65
-63.27
-45.96
-27.23
-11.00
0.27
6.11
8.77
11.93
19.11
31.30
45.89
56.89
57.44
43.36
15.48
-19.81
-53.09
-75.39
-81.53
-70.16
-44.71
-11.52
22.52
51.58
71.84
79.66
72.27
48.84
14.11
-22.36
-49.78
-61.28
-57.32
-45.03
-33.83
-29.64
-31.78
-34.07
-29.72
-15.89
4.77
26.17
42.63
52.08
56.56
60.30
66.52
75.07
82.66
84.73
77.99
61.99
39.10
13.44
-10.78
-30.37
-43.83
-51.24
-53.76
-52.98
-50.57
-47.71
-44.69
-41.00
-35.29
-26.17
-13.32
1.59
15.15
23.18
22.65
13.41
-1.76
-17.52
-27.61
-26.66
-11.57
18.27
60.57
110.58
161.76
206.18
236.89
250.12
245.90
227.25
198.82
164.14
124.64
79.80
27.52
-32.85
-98.63
-163.85
-220.99
-262.78
-285.67
-290.92
-278.87
-254.88
-226.63
-199.24
-171.96
-143.14
-108.12
-67.33
-27.03
4.69
22.54
26.73
24.14
24.83
36.52
61.29
93.87
125.15
146.90
154.82
150.91
142.10
135.54
134.07
135.27
133.91
123.00
98.70
61.31
15.74
-29.95
-67.38
-91.23
-99.11
-94.05
-81.27
-68.48
-63.73
-71.41
-90.25
-114.44
-137.05
-152.71
-159.01
-158.64
-152.28
-139.88
-121.81
-99.88
-77.56
-59.35
-49.01
-48.68
-57.86
-73.62
-92.72
-112.62
-133.42
-154.19
-172.70
-184.00
-183.09
-166.09
-131.62
-82.38
-24.66
33.33
84.07
122.59
147.00
157.66
156.24
144.98
126.45
104.15
83.13
69.45
68.46
82.01
107.05
136.52
161.93
176.56
177.58
166.87
149.23
130.55
115.04
104.37
97.98
94.46
92.73
92.54
95.25
102.73
117.32
139.66
168.02
198.52
226.26
246.96
257.91
259.67
247.85
220.95
180.05
129.05
73.31
17.52
-32.01
-75.75
-114.29
-146.80
-170.62
-183.55
-184.69
-175.71
-161.52
-149.01
-145.22
-152.83
-168.62
-183.66
-187.72
-174.02
-142.60
-100.33
-57.45
-23.20
-3.59
1.01
-4.23
-12.47
-18.80
-21.72
-22.19
-21.46
-20.37
-18.99
-17.51
-16.90
-18.95
-25.39
-36.63
-51.12
-65.88
-78.04
-85.89
-89.16
-88.50
-84.67
-77.87
-67.19
-52.52
-34.95
-17.10
-2.24
7.10
9.98
7.51
2.20
-2.55
-3.50
1.80
13.97
31.17
48.81
60.31
59.28
42.23
10.83
-27.67
-62.25
-81.95
-79.92
-55.97
-16.54
27.81
66.43
92.19
103.07
101.39
91.34
76.45
58.40
37.72
15.33
-6.35
-23.56
-32.61
-31.59
-21.16
-4.32
15.12
34.02
50.54
63.70
72.75
76.62
74.26
65.38
50.94
33.08
14.53
-1.85
-13.44
-17.85
-13.17
1.38
24.53
52.31
78.49
96.20
100.28
89.12
65.03
33.09
-0.78
-31.46
-55.32
-70.06
-74.42
-68.21
-52.73
-31.01
-7.52
12.81
26.02
30.12
25.43
13.88
-1.96
-19.41
-35.81
-48.42
-54.75
-53.35
-44.72
-31.47
-17.57
-6.79
-1.19
-0.40
-1.99
-2.92
-1.23
2.94
7.53
9.77
7.70
1.27
-7.21
-13.66
-13.75
-4.58
13.95
38.91
65.14
86.72
98.51
98.00
86.16
67.30
47.79
34.02
30.37
37.65
52.81
69.72
81.75
84.08
74.99
55.75
29.49
-0.30
-29.25
-53.25
-70.25
-80.32
-84.85
-85.62
-84.18
-81.81
-79.35
-79.05
-80.78
-83.69
-86.32
-87.08
-84.89
-79.65
-72.19
-63.95
-56.44
-49.41
-43.19
-37.85
-33.06
-28.24
-22.86
-16.71
-10.07
-3.68
1.65
4.69
4.58
1.10
-5.42
-14.25
-24.43
-34.88
-44.45
-52.00
-56.98
-59.33
-59.43
-58.01
-55.79
-53.19
-50.25
-46.65
-42.09
-36.62
-30.59
-24.54
-18.83
-13.66
-8.93
-4.50
-0.31
3.58
6.93
9.59
11.57
13.05
14.31
15.52
16.73
17.82
18.69
19.32
19.86
20.53
21.46
22.66
23.96
25.14
26.05
26.68
27.08
27.29
27.29
26.97
26.17
24.83
22.92
20.47
17.52
14.17
10.67
7.45
5.02
3.83
3.97
5.11
6.51
7.33
7.00
5.48
3.24
1.03
-0.35
-0.41
1.02
3.78
7.56
11.96
16.58
21.04
24.97
28.11
30.30
31.55
32.00
31.82
31.20
30.18
28.68
26.49
23.41
19.32
14.30
8.64
2.79
-2.75
-7.56
-11.34
-14.00
-15.56
-16.18
-16.06
-15.38
-14.28
-12.85
-11.16
-9.29
-7.35
-5.49
-3.81
-2.34
-1.01
0.32
1.78
3.42
5.16
6.81
8.16
9.02
9.25
8.76
7.54
5.61
3.11
0.29
-2.48
-4.79
-6.27
-6.73
-6.13
-4.65
-2.56
-0.24
1.93
3.62
4.62
4.87
4.49
3.68
2.65
1.56
0.44
-0.70
-1.86
-3.00
-4.01
-4.84
-5.49
-6.07
-6.77
-7.78
-9.21
-11.08
-13.22
-15.36
-17.24
-18.72
-19.89
-21.11
-22.87
-25.62
-29.56
-34.56
-40.22
-46.06
-51.76
-57.35
-63.24
-69.98
-78.00
-87.39
-97.86
-108.93
-120.19
-131.43
-142.58
-153.49
-163.84
-173.03
-180.43
-185.17
-185.90
-180.43
-165.82
-139.33
-99.97
-49.98
4.94
56.92
98.41
124.75
135.67
134.97
128.79
123.29
122.88
129.42
142.46
160.03
179.46
198.09
213.71
224.91
231.22
233.10
231.61
227.69
221.53
212.06
197.26
175.16
145.18
109.09
70.99
35.92
7.84
-11.95
-25.15
-35.11
-44.82
-55.31
-65.46
-73.21
-77.31
-78.33
-78.31
-79.40
-82.41
-86.31
-88.96
-88.69
-85.62
-81.69
-79.59
-81.12
-86.25
-93.37
-100.26
-105.18
-107.47
-107.26
-104.86
-100.29
-93.18
-83.00
-69.37
-52.21
-31.68
-8.19
17.65
44.93
72.45
98.71
122.24
141.81
156.96
168.31
177.56
186.80
197.18
207.74
215.12
214.73
203.08
179.83
148.47
114.97
85.13
62.12
45.51
32.61
20.76
9.42
0.56
-2.79
1.20
11.50
24.19
34.00
36.60
30.25
16.17
-2.60
-22.83
-42.44
-60.83
-78.19
-94.54
-109.06
-120.21
-126.39
-126.71
-121.55
-112.45
-101.56
-90.82
-81.32
-73.00
-64.83
-55.43
-43.76
-29.64
-13.86
2.26
17.39
30.72
42.12
51.94
60.60
68.17
74.28
78.24
79.54
78.15
74.77
70.67
67.37
66.15
67.65
71.43
75.81
77.98
74.62
62.90
41.62
12.01
-22.24
-56.07
-84.55
-104.57
-115.59
-119.40
-118.99
-117.27
-116.10
-116.07
-116.92
-118.04
-118.92
-119.27
-118.90
-117.62
-115.24
-111.57
-106.53
-100.18
-92.65
-84.19
-75.08
-65.64
-56.20
-47.00
-37.99
-28.77
-18.59
-6.70
7.30
23.11
39.61
55.19
68.27
77.78
83.37
85.36
84.53
82.03
79.43
78.58
81.25
88.49
99.93
113.67
126.94
137.09
142.65
143.74
141.64
137.62
132.03
124.05
112.33
96.30
76.81
56.12
36.73
20.06
5.64
-8.28
-23.21
-38.78
-52.39
-60.92
-63.04
-60.69
-58.61
-62.12
-74.61
-96.28
-124.26
-153.83
-180.54
-201.23
-213.98
-217.91
-212.93
-199.84
-180.44
-156.34
-127.07
-90.27
-42.66
17.41
87.28
158.74
219.49
256.30
260.77
234.01
185.92
132.55
90.75
72.82
82.97
117.01
164.15
212.96
256.48
292.51
323.06
351.69
380.77
409.72
435.62
454.00
451.11
419.10
356.58
269.68
169.09
65.20
-35.47
-123.50
-199.13
-260.14
-300.03
-313.33
-299.53
-264.61
-219.00
-174.39
-139.97
-121.41
-118.80
-127.82
-142.97
-157.40
-167.53
-171.85
-170.57
-165.27
-159.21
-154.25
-150.46
-146.66
-140.46
-129.85
-114.20
-95.20
-76.46
-62.59
-56.23
-57.15
-62.75
-69.44
-74.59
-77.20
-77.74
-77.36
-77.23
-77.68
-78.55
-79.83
-80.91
-81.69
-81.72
-79.63
-73.74
-63.27
-49.06
-33.48
-19.30
-8.48
-0.48
6.73
15.86
28.92
46.28
66.49
85.79
99.84
105.75
102.77
91.82
74.55
52.22
25.54
-4.28
-34.57
-61.76
-81.58
-91.05
-90.17
-82.10
-72.38
-66.38
-66.66
-71.49
-74.88
-70.25
-54.83
-32.94
-11.91
2.10
7.98
10.23
17.00
35.76
68.95
111.42
152.13
179.49
186.12
171.60
141.72
105.25
68.25
35.42
8.81
-11.23
-23.83
-27.02
-18.69
1.16
28.99
58.02
80.93
93.66
95.04
87.35
74.87
61.89
51.39
44.85
42.80
45.46
52.27
61.41
69.71
73.39
68.87
53.96
28.89
-3.34
-37.35
-66.81
-86.18
-91.87
-83.36
-63.44
-37.53
-12.07
7.47
18.26
20.63
17.28
12.05
8.26
7.56
9.65
12.75
14.59
13.41
8.50
0.26
-10.11
-21.17
-31.61
-40.40
-46.77
-50.12
-50.28
-47.64
-43.33
-38.92
-35.92
-35.26
-36.93
-40.15
-43.69
-46.42
-47.65
-47.14
-44.99
-41.30
-36.10
-29.36
-21.15
-11.88
-2.36
6.19
12.35
14.78
12.68
6.38
-2.36
-10.54
-14.70
-12.12
-1.84
14.94
35.29
55.79
73.54
86.86
95.19
98.41
96.42
89.02
76.39
59.53
40.43
21.55
4.88
-8.73
-19.78
-29.65
-39.76
-50.88
-62.88
-75.02
-86.61
-97.42
-107.72
-117.91
-128.08
-137.74
-146.01
-151.97
-155.14
-155.64
-154.11
-151.36
-148.12
-144.68
-140.96
-136.55
-131.03
-124.23
-116.41
-108.22
-100.40
-93.46
-87.36
-81.52
-75.13
-67.61
-58.91
-49.47
-39.89
-30.42
-20.85
-10.55
1.08
14.12
27.93
41.31
53.03
62.39
69.38
74.52
78.58
82.17
85.48
88.25
90.06
90.68
90.31
89.68
89.42
89.98
91.42
93.22
94.51
94.33
91.81
86.24
77.06
63.77
46.72
27.57
9.10
-5.39
-13.11
-12.72
-4.49
12.06
35.54
63.06
90.53
113.18
126.62
128.23
118.05
98.80
75.57
54.05
38.89
32.62
34.46
40.95
47.59
50.83
49.34
44.19
37.88
33.63
34.19
40.60
51.44
62.60
67.72
59.64
32.65
-15.22
-80.03
-152.06
-218.69
-268.55
-295.37
-299.99
-289.04
-271.29
-253.67
-238.03
-221.27
-198.39
-166.19
-125.58
-81.79
-42.04
-10.79
9.18
18.42
20.39
19.68
19.23
20.58
24.29
31.04
42.02
58.14
78.63
100.60
119.48
130.42
130.10
117.68
95.06
66.02
34.83
5.36
-19.66
-39.07
-53.08
-62.62
-68.71
-71.92
-72.39
-70.13
-65.05
-56.76
-44.64
-27.89
-6.05
20.25
49.13
77.47
101.54
118.30
126.51
127.05
122.72
116.86
112.22
110.74
113.28
119.63
128.96
140.21
152.43
165.31
178.79
192.87
208.09
224.68
241.83
257.63
269.47
275.26
274.91
269.60
260.60
248.69
232.79
209.87
176.42
130.10
68.70
-4.92
-83.91
-165.20
-246.42
-324.18
-393.96
-450.82
-491.09
-513.68
-519.99
-513.76
-499.55
-480.07
-455.86
-425.83
-388.28
-341.90
-286.12
-220.89
-147.63
-69.48
9.36
83.68
147.91
197.15
226.49
233.37
220.25
194.74
167.21
146.80
137.48
137.29
140.70
143.87
144.39
142.47
139.54
136.77
134.50
132.21
129.20
125.15
119.06
111.16
102.51
94.23
87.07
81.13
76.15
71.85
68.40
66.31
66.29
68.62
72.51
75.89
75.84
69.53
55.46
34.20
8.52
-17.23
-38.67
-52.93
-59.79
-61.68
-62.44
-65.57
-72.46
-81.70
-89.82
-93.13
-89.63
-80.28
-68.69
-59.64
-57.83
-66.35
-85.78
-114.00
-146.14
-175.28
-193.68
-194.76
-175.46
-138.68
-93.26
-51.55
-25.14
-20.42
-36.73
-67.45
-103.44
-133.99
-151.16
-151.38
-136.00
-110.00
-78.73
-45.92
-13.42
17.80
46.50
70.44
86.65
93.58
91.38
83.03
73.65
69.00
73.34
87.62
108.58
130.18
146.32
152.37
147.86
136.34
123.70
115.61
115.43
122.88
134.33
144.29
147.28
139.95
121.78
95.03
63.68
31.94
2.98
-21.59
-41.55
-57.43
-69.76
-79.28
-87.38
-96.38
-108.99
-126.86
-149.11
-171.70
-188.20
-191.98
-178.82
-148.73
-106.19
-58.66
-14.28
20.39
41.80
49.63
46.18
35.16
20.42
5.07
-8.75
-19.74
-27.07
-30.28
-29.18
-23.96
-15.00
-2.57
13.38
32.90
55.29
78.32
98.09
110.09
111.13
100.94
82.86
62.51
45.71
36.56
36.38
43.87
55.67
67.39
74.74
74.82
67.63
57.02
50.30
55.93
79.77
121.52
173.63
223.47
258.08
269.30
256.56
226.16
187.42
148.41
112.95
80.48
48.14
13.18
-25.81
-69.34
-118.07
-173.23
-235.15
-301.49
-365.99
-419.64
-453.71
-463.06
-448.35
-415.35
-371.82
-324.02
-274.85
-224.60
-173.56
-124.42
-82.56
-53.79
-40.98
-41.79
-49.15
-54.20
-50.00
-33.74
-6.61
28.51
69.22
114.24
162.20
209.61
250.26
276.64
283.19
269.08
238.95
200.69
161.94
127.01
95.95
66.14
35.09
2.51
-29.19
-56.09
-74.75
-83.71
-84.04
-78.97
-73.07
-71.21
-77.53
-94.31
-120.97
-153.81
-186.63
-212.39
-225.28
-222.14
-203.30
-172.10
-133.84
-94.34
-58.40
-28.64
-4.80
15.84
36.66
59.33
82.29
101.32
112.17
113.59
108.68
103.48
103.52
110.63
122.00
132.18
136.70
134.94
130.40
128.40
132.81
143.69
157.26
168.02
171.53
166.55
155.38
142.52
132.22
126.31
123.06
118.01
106.29
85.09
55.41
21.90
-9.15
-32.46
-45.68
-49.89
-48.32
-44.32
-39.89
-34.85
-27.07
-13.58
7.77
36.84
70.28
102.37
126.94
139.23
137.87
125.17
105.64
83.62
61.38
38.17
11.73
-19.50
-55.10
-92.18
-126.62
-155.00
-175.99
-190.24
-199.62
-205.26
-204.14
-193.10
-171.11
-140.83
-107.62
-78.21
-54.45
-35.57
-19.72
-5.43
6.98
16.08
20.90
22.26
22.57
24.47
28.88
34.97
41.19
46.47
51.17
56.58
63.38
70.30
74.33
71.75
60.70
42.69
22.13
4.84
-4.22
-2.82
7.44
21.48
32.30
33.58
22.10
-1.35
-32.49
-65.76
-96.51
-122.62
-144.34
-162.80
-178.18
-188.58
-190.98
-182.78
-163.35
-134.50
-99.97
-63.96
-29.72
1.23
28.51
51.79
70.27
83.19
91.25
96.88
103.28
112.78
125.31
138.00
146.53
147.42
137.63
118.22
93.53
68.12
43.87
19.81
-4.90
-29.39
-50.10
-63.02
-66.23
-61.40
-53.05
-47.11
-47.56
-55.14
-66.37
-74.85
-74.51
-62.44
-40.19
-13.65
11.80
32.67
47.69
57.31
62.62
64.39
62.17
55.84
45.90
33.79
21.37
10.43
2.03
-4.06
-9.28
-15.55
-24.21
-35.31
-47.27
-57.71
-64.22
-65.36
-61.55
-55.09
-49.46
-47.95
-52.21
-61.27
-72.07
-80.24
-81.62
-73.89
-57.20
-34.28
-9.45
12.92
30.11
41.29
47.91
53.00
60.11
71.04
86.17
103.38
117.93
127.31
129.06
122.66
110.21
94.02
78.30
66.12
57.15
47.78
33.59
12.42
-13.36
-37.71
-53.86
-57.59
-49.26
-33.06
-14.12
4.02
20.16
34.31
44.64
47.73
40.31
21.61
-5.49
-34.96
-61.85
-82.36
-94.28
-97.37
-91.84
-79.27
-61.96
-42.15
-21.49
-0.89
19.23
37.86
52.71
60.90
60.11
50.21
33.95
16.22
2.26
-4.27
-2.47
4.90
13.26
18.85
20.61
19.63
16.58
10.10
-2.51
-23.10
-50.66
-80.67
-108.13
-128.86
-140.89
-144.64
-141.68
-132.97
-118.41
-97.77
-71.83
-41.80
-12.15
12.72
30.94
43.86
55.31
68.18
82.72
97.01
108.50
115.48
118.21
118.43
118.40
118.37
118.22
117.16
114.29
109.14
101.92
93.79
86.22
80.12
75.38
70.76
64.28
54.37
40.83
24.92
9.00
-4.63
-14.81
-21.86
-27.43
-34.04
-43.85
-58.02
-76.51
-98.32
-122.10
-146.39
-167.16
-180.48
-184.14
-178.27
-164.98
-147.20
-127.38
-107.05
-86.91
-69.15
-53.31
-38.70
-24.85
-11.87
-0.58
7.62
11.39
10.48
6.55
2.42
0.95
4.21
12.87
26.16
42.22
58.47
72.24
81.03
82.92
77.10
64.78
49.40
35.63
27.59
26.73
31.42
37.43
39.67
34.19
19.91
-1.39
-26.12
-50.44
-71.74
-88.25
-98.86
-102.72
-99.14
-87.57
-68.26
-42.43
-12.21
19.54
50.50
79.05
102.93
119.54
127.17
125.93
118.07
109.31
101.53
94.15
85.72
75.35
62.57
48.79
35.85
24.93
15.82
6.91
-3.23
-14.76
-26.49
-36.12
-40.90
-38.88
-29.72
-14.73
3.60
22.18
38.03
48.60
52.05
47.70
36.06
19.01
-0.34
-18.44
-32.70
-41.71
-45.37
-44.55
-40.32
-33.49
-24.47
-13.49
-1.11
11.74
24.55
36.44
46.65
54.64
60.10
62.93
63.27
61.25
56.92
50.34
41.57
30.83
18.73
6.11
-6.18
-17.64
-28.26
-38.47
-48.60
-58.63
-67.96
-75.70
-81.19
-84.61
-87.02
-90.08
-95.24
-103.03
-112.80
-122.99
-131.82
-137.95
-140.87
-140.78
-138.18
-133.50
-126.96
-118.69
-108.93
-98.17
-87.07
-76.21
-65.80
-55.60
-45.00
-33.31
-20.11
-5.60
9.41
23.70
36.12
46.06
53.73
60.10
66.48
73.97
83.02
93.27
103.81
113.48
121.31
126.56
128.79
127.68
123.13
115.43
105.39
94.37
83.84
74.93
67.92
62.22
56.71
50.37
42.68
33.80
24.38
15.06
6.21
-2.26
-10.71
-19.38
-28.27
-37.13
-45.68
-53.79
-61.63
-69.59
-78.04
-87.15
-96.60
-105.65
-113.49
-119.57
-123.71
-125.98
-126.49
-125.16
-121.76
-115.76
-106.53
-93.79
-77.86
-59.68
-40.56
-21.80
-4.36
11.39
26.06
41.16
58.40
79.00
103.19
130.17
158.31
185.76
207.48
218.89
217.37
203.18
179.51
151.25
123.22
98.81
79.58
67.78
61.82
59.14
57.11
53.88
48.89
43.13
38.77
38.17
41.57
48.47
57.60
67.25
76.01
83.23
89.15
94.52
100.08
106.29
113.27
120.85
128.16
133.33
133.83
127.28
112.64
90.95
65.17
39.19
16.23
-2.59
-18.72
-35.27
-55.46
-80.97
-111.09
-142.88
-172.22
-195.22
-209.27
-213.33
-207.60
-193.07
-171.25
-144.31
-115.30
-87.92
-65.84
-51.50
-45.17
-44.83
-47.02
-48.32
-46.65
-41.73
-34.74
-27.25
-20.43
-14.69
-9.95
-6.09
-3.25
-1.88
-2.41
-4.90
-8.80
-13.03
-16.37
-17.94
-17.52
-15.49
-12.61
-9.68
-7.32
-5.96
-5.80
-6.94
-9.34
-12.80
-16.82
-20.80
-24.24
-27.03
-29.54
-32.42
-36.36
-41.92
-49.18
-57.42
-65.16
-70.47
-71.47
-67.02
-57.26
-43.76
-29.69
-18.55
-12.89
-13.39
-18.91
-27.32
-36.49
-44.84
-51.32
-55.66
-57.29
-54.97
-47.27
-33.62
-15.26
4.68
22.00
32.70
33.01
20.59
-4.55
-39.85
-80.60
-121.04
-155.68
-180.69
-187.62
-172.58
-137.68
-90.53
-40.68
4.85
43.85
78.28
111.53
144.42
175.65
200.26
211.13
201.81
169.04
114.27
43.80
-33.15
-105.50
-163.84
-202.64
-220.39
-218.14
-198.16
-163.90
-120.49
-75.16
-36.13
-10.38
-0.62
-3.31
-9.28
-7.80
7.19
33.76
61.93
78.03
70.78
36.12
-20.71
-85.75
-140.58
-169.13
-161.32
-115.73
-39.36
54.90
150.67
231.02
282.99
300.56
284.18
242.24
188.98
140.78
112.08
109.63
129.20
159.75
189.03
206.46
207.89
194.65
165.12
119.84
67.37
10.72
-52.09
-109.95
-152.75
-169.29
-153.08
-105.87
-37.08
38.03
102.59
145.02
162.61
158.00
137.70
107.96
72.71
34.64
-3.65
-38.63
-63.98
-71.86
-57.95
-22.69
27.36
81.15
126.76
154.28
157.86
138.02
101.79
59.38
21.93
-2.13
-9.32
-1.29
16.72
38.27
58.49
75.02
86.71
92.67
91.59
82.26
64.77
40.90
13.38
-15.40
-44.51
-74.90
-107.92
-143.79
-180.43
-213.70
-238.68
-251.46
-250.33
-236.10
-211.64
-180.88
-147.86
-115.91
-87.25
-62.94
-43.13
-27.42
-15.21
-5.94
0.97
6.15
10.26
13.89
17.37
20.63
23.32
25.07
25.81
25.91
26.06
26.84
28.47
30.54
32.29
33.00
32.32
30.37
27.64
24.71
22.01
19.69
17.69
15.83
13.98
12.09
10.13
8.05
5.78
3.36
1.10
-0.51
-0.94
0.18
2.82
6.53
10.69
14.78
18.58
22.19
25.58
28.62
31.10
32.80
33.61
33.58
32.80
31.40
29.47
26.55
22.29
16.71
10.16
3.17
-3.81
-10.68
-17.45
-24.01
-30.60
-36.73
-41.24
-42.88
-41.29
-37.66
-34.67
-35.60
-43.18
-59.76
-85.39
-117.43
-151.00
-180.26
-200.19
-208.09
-204.22
-186.19
-155.91
-118.00
-78.01
-40.26
-6.35
24.72
55.43
87.14
122.04
159.25
195.32
224.85
242.22
243.53
228.01
197.00
154.92
107.64
59.80
15.27
-22.50
-50.20
-65.21
-66.79
-56.94
-40.17
-22.38
-9.64
-5.67
-10.72
-21.93
-34.68
-44.67
-49.61
-49.77
-47.68
-47.05
-50.67
-59.28
-71.53
-85.22
-98.59
-110.87
-121.87
-131.39
-138.94
-143.89
-145.90
-145.27
-142.47
-137.36
-128.51
-113.38
-89.62
-56.49
-15.88
28.13
70.85
109.02
142.13
172.28
202.43
234.14
266.09
294.33
314.23
322.83
320.32
309.88
296.07
282.72
271.57
262.03
251.79
237.63
216.09
183.98
139.14
81.31
13.00
-60.57
-132.58
-196.49
-247.73
-284.76
-308.99
-323.88
-333.63
-341.66
-349.60
-356.87
-361.48
-361.24
-355.29
-344.36
-329.80
-312.06
-289.71
-260.05
-220.93
-172.64
-118.52
-63.68
-12.69
32.14
70.81
104.17
132.10
153.00
164.65
165.99
158.29
144.91
129.80
115.72
103.44
92.06
80.31
67.71
55.11
44.41
37.55
35.43
37.40
41.59
45.84
48.69
50.10
51.22
53.66
58.64
66.36
76.10
86.48
95.85
102.56
105.11
102.28
93.67
80.10
63.73
47.62
34.64
26.31
22.17
20.04
16.93
10.35
-0.67
-15.28
-31.16
-45.47
-55.85
-61.18
-61.94
-59.84
-57.06
-55.41
-55.46
-56.18
-55.09
-48.97
-35.11
-12.63
16.57
47.61
73.53
87.22
83.89
63.16
29.85
-6.97
-36.55
-49.76
-41.92
-14.24
26.73
71.15
108.86
132.09
137.28
125.34
100.77
70.00
39.58
14.81
-1.11
-7.32
-5.08
2.87
13.12
22.40
28.37
30.05
27.88
23.37
18.49
14.90
13.49
14.15
15.93
17.50
17.67
15.83
12.13
7.40
2.78
-0.70
-2.46
-2.53
-1.48
-0.15
0.63
0.36
-1.01
-3.15
-5.59
-7.89
-9.93
-11.83
-13.91
-16.48
-19.66
-23.34
-27.18
-30.75
-33.60
-35.44
-36.11
-35.66
-34.24
-32.09
-29.42
-26.38
-23.03
-19.44
-15.65
-11.79
-8.06
-4.63
-1.69
0.70
2.55
3.94
4.97
5.72
6.20
6.42
6.33
5.89
5.05
3.73
1.85
-0.63
-3.63
-6.95
-10.34
-13.55
-16.39
-18.80
-20.86
-22.65
-24.24
-25.64
-26.82
-27.72
-28.33
-28.60
-28.47
-27.87
-26.72
-25.05
-22.94
-20.57
-18.14
-15.83
-13.76
-12.06
-10.90
-10.54
-11.25
-13.19
-16.33
-20.42
-24.99
-29.47
-33.25
-35.75
-36.54
-35.41
-32.48
-28.19
-23.00
-17.12
-10.14
-1.16
10.70
25.48
41.64
56.09
65.02
65.47
56.91
41.88
25.32
12.65
7.85
12.50
26.08
47.11
73.96
104.82
136.92
166.26
188.05
198.32
195.66
181.53
158.92
130.09
95.18
52.73
2.25
-53.25
-106.56
-148.33
-170.74
-170.71
-150.84
-117.92
-80.22
-44.90
-16.86
1.22
8.33
4.75
-7.83
-26.31
-46.62
-64.75
-77.85
-84.83
-86.31
-83.88
-79.59
-75.16
-71.53
-68.78
-66.29
-63.29
-59.41
-54.94
-50.29
-45.39
-39.36
-30.87
-19.09
-4.51
10.88
24.58
34.74
41.15
45.08
48.31
52.01
56.22
60.31
63.77
66.68
69.48
72.24
74.15
73.80
69.96
62.36
52.12
41.14
31.27
23.58
18.17
14.50
11.95
10.11
8.83
8.02
7.53
7.22
7.01
6.99
7.24
7.75
8.32
8.67
8.61
8.15
7.42
6.52
5.36
3.59
0.79
-3.30
-8.49
-14.07
-18.95
-22.08
-22.89
-21.61
-19.20
-16.97
-16.05
-16.93
-19.21
-21.70
-22.76
-20.78
-14.56
-3.80
10.77
27.36
43.42
56.27
63.66
64.30
58.04
45.75
28.96
9.27
-12.07
-34.44
-57.49
-80.39
-101.04
-115.85
-120.64
-112.33
-90.79
-59.49
-24.52
7.73
32.81
49.41
58.70
62.67
62.52
58.28
49.72
37.50
23.76
11.29
2.22
-3.26
-7.00
-11.77
-19.64
-30.72
-43.09
-53.75
-60.12
-61.36
-58.68
-54.76
-52.53
-54.04
-59.65
-68.17
-77.53
-85.64
-90.93
-92.59
-90.31
-84.22
-74.97
-63.44
-50.66
-37.44
-24.06
-10.11
5.26
22.81
42.43
62.70
81.81
98.55
113.03
126.73
141.76
159.30
178.53
196.09
206.53
205.06
189.28
159.71
118.92
69.83
14.38
-46.14
-110.22
-174.98
-234.51
-281.30
-309.09
-315.63
-303.78
-280.43
-253.31
-223.69
-192.21
-158.21
-121.18
-81.83
-41.88
-2.97
32.26
64.79
95.63
123.77
147.10
163.14
170.16
167.67
157.39
142.61
127.18
113.23
100.03
84.99
64.87
37.26
1.74
-39.66
-82.99
-123.30
-156.40
-180.02
-193.70
-198.68
-197.36
-192.65
-187.32
-183.59
-182.64
-184.48
-187.83
-189.96
-187.36
-176.77
-156.23
-125.69
-87.23
-44.51
-1.98
36.27
67.50
90.89
107.37
119.02
128.16
136.36
144.04
150.47
154.35
154.54
150.52
142.61
131.81
119.51
107.20
96.19
87.42
81.20
77.18
74.48
71.92
68.29
62.55
54.09
42.85
29.70
16.56
6.06
0.58
1.11
6.57
14.14
20.70
24.49
26.08
27.99
33.10
42.88
56.39
70.70
82.27
88.48
88.54
83.39
75.07
65.93
58.05
52.82
50.56
50.32
49.83
46.18
36.85
20.62
-1.87
-28.29
-55.45
-80.07
-99.33
-111.13
-114.27
-108.91
-96.78
-81.18
-66.15
-54.92
-48.46
-44.71
-39.61
-29.04
-11.05
13.15
39.79
64.37
83.52
95.91
102.09
103.37
100.87
95.19
87.06
77.71
68.80
61.70
56.80
53.68
51.21
48.39
44.53
40.10
36.18
33.85
33.37
34.12
35.43
36.49
36.59
34.51
30.10
24.17
18.41
14.31
12.74
14.59
19.96
28.34
37.58
46.32
53.83
59.95
64.33
66.88
69.65
75.91
89.31
110.40
138.05
168.81
197.91
220.02
224.46
204.96
160.32
104.81
46.95
-7.53
-56.76
-95.50
-118.02
-121.17
-105.76
-78.35
-49.02
-28.96
-23.78
-32.22
-47.77
-63.27
-74.25
-79.22
-79.51
-77.08
-74.05
-70.22
-64.29
-55.29
-44.29
-34.28
-28.05
-27.21
-30.90
-36.91
-41.92
-43.25
-40.42
-35.40
-31.69
-32.12
-38.16
-49.27
-63.84
-79.54
-93.77
-103.97
-107.94
-104.76
-92.79
-73.71
-52.51
-35.85
-28.96
-32.74
-45.81
-63.55
-81.81
-98.23
-112.52
-125.22
-134.67
-139.82
-139.98
-135.37
-126.95
-116.55
-106.20
-97.71
-91.83
-87.78
-83.83
-77.73
-68.03
-54.83
-40.36
-28.13
-21.58
-22.41
-29.77
-40.90
-52.20
-60.94
-65.95
-67.70
-67.28
-65.29
-61.30
-54.09
-42.77
-27.61
-10.41
6.05
19.02
26.91
29.82
29.22
27.10
24.98
23.51
22.44
21.09
18.71
14.59
8.03
-1.73
-15.04
-31.03
-46.81
-57.60
-58.10
-44.81
-18.10
17.23
53.51
83.50
103.57
115.31
124.54
138.25
160.98
192.56
228.17
260.64
283.70
294.39
293.84
286.00
275.43
265.26
256.24
247.30
236.82
223.99
209.18
193.31
176.76
158.65
136.99
109.83
76.47
38.15
-2.26
-41.35
-76.40
-106.10
-130.64
-151.12
-168.81
-184.45
-197.89
-208.00
-213.10
-211.58
-202.57
-186.40
-164.68
-139.89
-114.71
-91.43
-71.49
-55.25
-42.13
-30.96
-20.41
-9.45
2.27
14.45
26.28
36.93
45.77
52.47
56.83
58.57
57.35
52.94
45.51
35.71
24.52
12.80
0.94
-11.15
-23.79
-37.03
-50.36
-62.70
-72.82
-79.71
-83.07
-83.31
-81.42
-78.68
-76.23
-74.83
-74.67
-75.38
-76.22
-76.43
-75.51
-73.39
-70.32
-66.62
-62.43
-57.71
-52.44
-46.79
-41.16
-35.92
-31.14
-26.68
-22.52
-19.22
-17.85
-19.29
-23.26
-27.89
-29.98
-26.14
-14.20
6.01
32.75
62.97
93.20
119.98
140.16
151.35
152.62
145.38
133.69
123.17
118.77
122.32
131.41
140.45
143.38
136.56
120.19
97.79
73.59
50.26
27.98
5.58
-17.39
-39.04
-55.72
-63.86
-61.64
-50.21
-32.79
-13.04
6.42
24.57
41.47
56.69
68.85
76.73
80.30
81.75
84.67
91.95
103.64
116.28
123.52
116.59
90.09
44.44
-13.50
-73.58
-127.43
-173.14
-212.09
-246.05
-275.13
-295.44
-302.81
-294.47
-270.24
-232.80
-186.70
-136.78
-87.67
-43.40
-6.99
19.19
33.80
36.70
29.05
13.37
-6.59
-26.82
-43.98
-55.86
-61.90
-62.72
-59.29
-52.37
-41.98
-27.24
-7.05
19.22
51.35
88.29
127.32
165.06
198.08
223.38
238.85
243.35
237.01
221.41
199.35
174.16
148.70
124.54
101.79
79.74
57.74
35.80
14.71
-4.55
-21.49
-36.21
-48.69
-58.58
-64.50
-64.92
-59.16
-48.43
-35.88
-25.74
-21.89
-26.00
-37.01
-51.58
-65.72
-76.19
-81.38
-81.26
-75.40
-64.96
-51.83
-38.06
-25.24
-14.29
-5.54
0.80
4.13
2.92
-4.89
-20.33
-42.15
-66.60
-88.66
-104.11
-112.18
-114.26
-113.48
-113.20
-115.17
-118.85
-121.92
-121.67
-116.35
-105.95
-92.00
-77.19
-64.45
-55.77
-51.53
-50.35
-49.66
-46.66
-39.15
-26.05
-7.76
14.08
37.21
59.28
78.39
93.49
104.51
112.17
117.67
121.92
125.12
126.74
125.82
121.65
114.21
104.33
93.36
82.62
72.83
63.96
55.41
46.46
36.81
26.83
17.53
10.34
6.58
7.07
11.91
20.56
32.00
44.78
57.13
66.79
71.25
68.24
56.45
36.47
11.07
-15.27
-37.63
-52.27
-57.92
-55.99
-49.83
-43.13
-38.47
-36.59
-36.48
-36.39
-34.72
-30.79
-24.89
-18.01
-11.26
-5.49
-1.03
2.63
6.73
13.10
23.27
37.50
54.04
69.35
79.43
81.41
74.96
62.38
47.97
36.48
31.82
35.80
47.74
64.59
81.28
91.86
91.34
77.88
54.16
27.03
4.83
-5.75
-1.97
13.33
33.52
50.16
56.28
48.69
28.38
-1.45
-37.08
-74.83
-111.25
-143.06
-167.60
-183.19
-191.06
-192.26
-188.33
-180.95
-171.07
-158.72
-143.05
-122.73
-96.68
-64.97
-29.25
7.25
39.42
63.24
77.50
83.95
85.86
86.25
86.44
86.32
84.91
81.45
76.27
70.18
63.40
55.23
44.84
32.74
21.78
16.44
20.67
35.53
57.92
81.43
98.83
105.29
100.36
87.71
72.90
60.45
51.95
46.27
40.49
32.06
20.38
6.62
-7.20
-19.31
-29.05
-36.92
-43.63
-50.01
-56.56
-62.05
-66.18
-69.94
-75.19
-83.99
-97.54
-114.65
-133.11
-150.58
-165.52
-175.12
-178.10
-173.76
-161.75
-146.68
-130.25
-114.12
-100.49
-89.87
-82.97
-79.56
-78.05
-76.34
-72.75
-65.80
-55.43
-42.39
-27.67
-12.65
1.13
12.49
20.72
25.89
29.36
32.58
36.73
42.49
49.69
57.61
65.47
72.71
78.99
84.46
88.97
92.12
93.48
92.73
89.93
85.67
80.83
76.18
72.26
68.94
65.61
61.57
56.39
50.15
43.45
37.13
31.93
28.41
26.77
27.02
29.06
32.71
37.65
43.39
49.23
54.49
58.66
61.70
64.01
66.32
69.29
73.24
77.90
82.42
85.65
86.45
84.09
78.34
69.49
58.11
44.84
30.36
15.36
0.69
-12.73
-24.03
-32.60
-38.16
-40.70
-40.25
-36.81
-30.32
-20.89
-9.06
4.15
17.54
30.13
41.52
51.96
62.06
72.17
82.20
91.56
99.56
105.78
110.25
113.23
114.79
114.51
111.53
104.92
94.22
79.78
62.70
44.47
26.46
9.51
-6.29
-21.46
-36.72
-52.58
-69.02
-85.58
-101.75
-117.28
-132.05
-145.64
-157.09
-165.04
-168.60
-168.26
-166.20
-165.47
-168.35
-174.69
-181.45
-183.83
-177.53
-160.92
-135.87
-106.85
-78.89
-55.79
-39.00
-28.04
-21.51
-18.15
-17.25
-18.42
-21.13
-24.32
-26.79
-27.39
-25.82
-22.92
-20.85
-22.65
-31.53
-49.76
-77.70
-113.52
-153.08
-191.07
-222.53
-244.30
-255.46
-256.76
-249.47
-234.37
-211.97
-182.83
-148.37
-111.16
-74.27
-40.08
-9.24
19.53
50.53
86.28
126.57
168.30
206.89
238.25
260.33
273.05
277.30
273.95
263.31
245.99
223.34
197.60
171.15
145.63
121.52
98.24
75.20
52.58
32.24
16.78
8.82
9.68
18.45
31.88
45.00
52.59
50.16
36.22
13.06
-14.22
-40.17
-61.06
-74.85
-80.87
-79.05
-69.49
-52.35
-28.71
-1.32
25.40
46.64
59.12
62.27
58.58
52.83
50.50
55.48
69.47
91.03
115.96
138.53
153.06
155.55
144.65
121.67
89.80
53.04
15.18
-20.48
-51.15
-74.69
-89.84
-96.67
-96.72
-92.51
-86.46
-79.93
-72.53
-62.36
-47.06
-25.34
1.95
31.50
58.12
76.17
80.99
69.91
42.79
1.86
-48.46
-101.97
-151.68
-191.54
-218.58
-233.96
-242.25
-248.66
-256.24
-264.00
-267.44
-261.04
-241.41
-209.14
-168.07
-122.85
-76.23
-28.87
19.40
67.87
114.03
154.17
184.77
204.25
213.78
216.90
217.11
216.09
213.08
205.40
189.64
163.13
125.64
78.64
29.39
-11.70
-35.32
-38.12
-25.08
-5.74
9.81
14.11
4.51
-15.86
-40.72
-63.50
-78.96
-83.55
-75.89
-56.70
-28.55
6.69
47.75
91.54
131.49
160.47
173.68
170.89
156.53
137.51
117.53
98.76
79.78
56.82
26.99
-9.84
-50.52
-89.99
-123.03
-146.58
-158.33
-157.05
-142.72
-116.67
-81.77
-41.97
-1.27
37.06
69.76
93.87
107.00
108.48
99.93
84.65
66.12
46.29
25.24
2.58
-20.09
-39.59
-51.15
-50.64
-37.36
-15.22
8.16
24.38
27.65
17.27
-3.10
-26.68
-46.68
-59.15
-63.97
-63.87
-62.18
-60.74
-59.01
-55.06
-47.13
-35.34
-22.09
-10.99
-5.00
-4.97
-9.25
-14.50
-16.98
-13.80
-3.67
13.07
34.61
57.65
77.28
87.46
82.63
60.11
22.17
-23.71
-66.76
-96.53
-106.64
-96.78
-72.09
-40.25
-7.93
21.39
47.05
69.64
89.14
104.14
112.73
114.00
109.11
100.98
92.85
86.00
79.56
71.34
59.50
43.87
26.14
8.74
-6.46
-18.93
-30.21
-42.44
-57.29
-75.22
-95.44
-116.03
-134.50
-148.26
-152.02
-143.22
-122.78
-95.10
-65.93
-39.99
-19.80
-6.28
0.24
-0.41
-8.68
-23.64
-42.30
-60.20
-73.11
-78.70
-77.42
-73.02
-68.40
-65.94
-66.31
-68.66
-71.08
-71.62
-68.78
-61.89
-51.04
-36.77
-20.35
-2.66
15.63
33.94
51.22
66.12
76.49
81.10
80.83
77.87
76.87
82.38
95.96
114.12
129.94
136.46
130.60
113.92
90.45
64.26
37.56
12.69
-8.82
-22.92
-23.73
-6.11
30.24
79.11
129.44
169.14
189.41
187.16
165.51
128.89
84.94
41.18
3.27
-25.17
-42.35
-47.57
-40.92
-23.06
3.98
36.18
66.92
88.17
93.06
78.55
47.05
5.88
-35.26
-68.03
-88.38
-97.72
-101.57
-106.23
-115.77
-130.62
-147.69
-161.54
-166.16
-156.43
-129.92
-88.29
-37.70
12.21
50.92
70.27
67.12
44.30
9.48
-27.57
-57.87
-75.17
-76.88
-64.02
-40.47
-11.77
16.49
40.45
58.95
73.38
86.09
98.63
110.49
119.66
124.00
122.62
116.40
107.00
95.46
81.44
63.64
41.15
14.93
-11.91
-35.22
-51.53
-59.57
-60.68
-57.68
-53.07
-47.52
-39.61
-27.11
-8.69
14.77
40.05
62.84
79.31
87.15
85.79
75.93
59.04
37.22
13.51
-8.21
-23.97
-31.08
-29.50
-22.21
-14.07
-9.68
-11.33
-18.28
-27.78
-36.65
-42.99
-46.91
-50.03
-54.11
-59.89
-66.64
-72.72
-77.11
-79.59
-80.77
-81.45
-82.01
-82.04
-80.55
-76.70
-70.44
-63.39
-57.81
-55.78
-58.60
-66.44
-78.11
-91.35
-103.49
-112.27
-117.59
-120.64
-123.03
-125.89
-129.12
-131.21
-129.86
-123.37
-106.46
-78.29
-41.48
-0.80
38.03
69.19
87.14
87.86
70.13
37.35
-3.33
-43.79
-76.16
-96.28
-105.10
-107.34
-107.71
-108.59
-108.69
-105.21
-95.66
-79.52
-57.70
-33.58
-11.32
7.13
22.01
35.95
52.37
74.99
107.02
149.85
202.26
259.87
317.76
366.55
396.78
401.03
376.46
325.37
253.67
174.50
94.18
19.58
-40.70
-77.55
-85.19
-63.61
-19.18
36.57
90.56
131.38
153.67
157.42
146.68
127.14
104.45
83.19
65.81
51.97
38.00
19.38
-7.83
-44.75
-88.54
-132.55
-168.09
-187.75
-188.32
-172.36
-146.21
-117.85
-93.80
-76.42
-65.35
-57.55
-49.39
-38.92
-27.16
-16.73
-9.83
-6.52
-4.70
-1.65
4.61
13.91
24.13
32.35
36.65
36.99
35.23
34.25
36.30
42.11
50.33
58.13
62.50
61.81
56.56
48.86
40.99
33.84
26.37
16.06
0.28
-22.13
-49.99
-80.11
-108.44
-131.62
-147.90
-157.33
-161.24
-161.47
-159.54
-156.16
-151.19
-144.02
-134.10
-121.35
-106.32
-89.88
-72.84
-55.71
-38.72
-22.21
-6.90
6.15
16.01
22.45
26.29
29.10
32.50
37.42
43.72
50.51
56.70
61.52
64.77
66.55
67.05
66.26
64.06
60.34
55.19
48.96
42.20
35.53
29.45
24.20
19.67
15.43
11.00
6.14
1.04
-3.73
-7.49
-9.74
-10.36
-9.64
-8.09
-6.20
-4.24
-2.16
0.39
3.90
8.80
15.40
23.62
33.06
42.98
52.61
61.51
69.89
78.60
88.90
102.00
118.52
138.24
160.18
182.79
204.45
223.96
240.88
255.74
270.08
286.09
305.76
329.71
356.09
380.45
396.56
398.20
380.99
343.49
287.20
215.56
132.56
41.65
-54.67
-154.84
-257.61
-361.35
-463.13
-558.31
-640.42
-702.37
-738.30
-745.26
-724.21
-679.48
-617.42
-544.71
-467.67
-391.53
-320.94
-259.78
-210.45
-173.03
-144.98
-122.14
-100.12
-76.20
-49.34
-20.31
9.18
37.68
64.65
90.69
116.76
143.82
172.03
201.53
230.31
254.27
268.77
270.80
260.93
242.32
222.60
204.43
188.11
172.93
158.37
145.09
133.45
125.41
122.28
123.91
128.04
132.00
133.45
131.44
126.65
120.73
115.65
112.30
109.09
104.58
99.00
94.24
92.48
94.08
96.11
94.51
83.92
61.22
27.26
-13.13
-53.56
-89.12
-116.67
-136.49
-150.79
-161.79
-169.70
-172.75
-168.95
-158.18
-143.06
-127.81
-116.29
-109.90
-107.44
-106.03
-102.96
-97.00
-88.52
-78.89
-69.49
-61.48
-55.60
-52.43
-52.20
-54.71
-59.17
-64.31
-68.57
-70.45
-69.00
-63.87
-55.33
-44.10
-31.11
-17.31
-3.59
9.15
19.84
27.07
29.41
25.99
17.22
4.90
-8.17
-19.34
-27.00
-30.81
-31.22
-28.47
-21.94
-10.39
7.09
30.20
57.20
85.57
113.13
138.89
163.14
186.71
210.05
232.36
251.54
264.75
269.64
265.47
253.88
238.70
224.94
217.11
217.65
226.07
239.01
251.52
258.50
255.95
241.66
215.39
178.80
135.25
88.98
44.00
2.96
-33.45
-66.18
-96.77
-126.11
-154.05
-179.94
-203.65
-226.40
-250.35
-277.37
-307.63
-338.96
-367.50
-389.10
-400.59
-400.38
-388.45
-365.91
-334.86
-298.20
-259.39
-221.79
-187.61
-156.86
-127.43
-96.48
-62.47
-26.65
7.12
34.16
51.25
58.08
56.89
50.65
41.05
27.83
9.77
-13.52
-40.42
-67.61
-91.70
-110.98
-126.17
-139.52
-152.69
-164.87
-172.50
-170.58
-155.14
-125.43
-84.66
-39.17
3.76
38.96
65.39
86.07
106.34
130.91
161.36
195.72
229.23
256.22
269.72
264.40
238.77
197.44
151.01
112.53
92.56
95.76
117.56
149.15
181.34
207.49
225.24
236.24
241.10
241.64
238.71
231.47
218.35
197.81
169.33
133.57
91.50
43.88
-8.39
-63.62
-118.09
-165.31
-197.86
-209.75
-199.13
-169.90
-130.90
-93.16
-66.21
-54.94
-58.67
-73.39
-93.94
-116.02
-137.01
-155.03
-168.65
-176.26
-176.25
-164.43
-139.35
-102.64
-58.48
-14.29
26.28
60.39
84.78
96.10
92.18
73.72
45.93
17.72
-1.36
-4.21
10.35
37.49
68.98
96.84
115.85
124.82
125.47
119.83
109.17
93.01
70.42
41.66
8.94
-24.53
-55.56
-82.12
-103.97
-121.41
-134.85
-144.19
-148.71
-147.67
-141.13
-130.09
-114.18
-93.66
-68.07
-37.07
-1.86
34.13
66.09
89.66
102.77
107.45
105.85
99.51
88.83
73.74
55.09
35.78
20.68
14.66
19.98
34.23
50.62
59.82
53.48
28.01
-13.22
-60.33
-100.35
-122.09
-120.99
-100.65
-71.33
-45.64
-33.08
-36.27
-50.48
-66.89
-77.34
-78.36
-71.63
-61.61
-51.95
-43.07
-32.52
-17.20
4.04
29.70
56.48
81.38
102.98
121.25
136.50
147.98
153.94
152.65
143.72
128.90
111.63
95.95
85.14
81.12
84.32
93.96
108.18
124.14
138.47
148.20
151.91
150.29
145.85
141.50
139.17
138.95
139.28
138.18
134.46
128.32
121.00
113.78
107.03
99.92
90.81
78.07
60.83
39.45
15.45
-8.88
-31.08
-49.13
-61.84
-69.01
-71.23
-69.63
-65.60
-60.53
-55.70
-52.22
-50.94
-52.31
-56.27
-62.20
-69.25
-76.72
-84.42
-92.75
-102.31
-113.38
-125.50
-137.31
-146.98
-152.79
-153.84
-150.32
-143.28
-134.07
-123.68
-112.35
-99.63
-84.83
-67.47
-47.65
-26.16
-4.36
16.11
33.62
46.69
54.12
55.19
49.88
39.07
24.50
8.35
-7.25
-20.83
-31.79
-40.24
-46.66
-51.57
-55.20
-57.46
-58.10
-56.91
-53.80
-48.97
-42.75
-35.67
-28.29
-21.25
-15.16
-10.61
-7.99
-7.42
-8.73
-11.49
-15.15
-19.21
-23.28
-27.16
-30.89
-34.61
-38.54
-42.78
-47.20
-51.35
-54.52
-56.02
-55.35
-52.34
-47.15
-40.03
-31.22
-21.06
-10.09
0.84
10.79
19.18
26.17
32.66
39.91
48.75
58.98
69.32
77.85
82.92
83.81
80.96
75.53
68.68
61.00
52.43
42.66
31.64
19.83
8.07
-2.82
-12.45
-20.86
-28.09
-33.79
-36.95
-36.19
-30.52
-19.97
-5.92
9.07
22.01
30.12
31.36
24.59
9.68
-12.54
-40.00
-69.59
-97.87
-122.13
-141.27
-156.07
-168.59
-181.11
-195.24
-210.92
-226.43
-239.17
-246.58
-247.01
-240.07
-226.78
-209.36
-191.41
-176.42
-166.49
-161.35
-157.98
-151.50
-137.10
-112.21
-78.06
-40.07
-4.99
22.13
39.97
51.09
60.06
70.65
83.90
101.80
122.65
143.65
162.76
179.22
192.79
202.05
204.17
196.26
176.73
147.16
112.02
76.68
45.27
19.50
-1.30
-19.09
-35.60
-50.66
-63.75
-73.92
-80.28
-82.05
-78.12
-67.14
-47.86
-19.75
15.76
55.66
96.29
133.05
160.78
175.65
176.26
164.59
148.96
135.41
127.58
127.07
133.90
145.45
159.58
174.21
187.29
196.61
199.44
194.08
180.67
161.37
139.94
120.80
107.30
100.76
100.63
104.91
111.79
119.94
128.10
134.75
138.47
138.29
134.20
127.15
118.06
107.55
95.48
81.04
63.50
43.06
20.93
-1.12
-21.59
-39.98
-56.74
-72.79
-89.04
-106.10
-124.25
-143.64
-164.35
-186.11
-208.16
-229.08
-247.06
-260.54
-268.90
-272.70
-273.34
-272.40
-270.85
-268.63
-264.94
-258.43
-248.08
-233.73
-216.33
-197.68
-179.67
-163.35
-148.40
-133.30
-115.66
-93.38
-65.79
-34.07
-0.96
30.30
57.36
80.21
98.80
113.10
122.94
128.46
130.61
131.32
132.53
135.25
138.86
141.32
141.39
140.49
143.34
155.88
181.25
215.99
249.76
269.01
263.27
230.74
179.43
122.99
73.70
37.22
11.88
-6.92
-21.90
-31.78
-32.64
-22.53
-4.66
12.80
20.36
12.10
-11.03
-42.27
-72.96
-96.49
-110.76
-117.24
-118.46
-114.05
-103.71
-87.05
-65.13
-41.14
-19.22
-2.58
7.94
13.96
18.10
21.73
24.35
23.89
18.10
6.25
-10.44
-29.00
-46.02
-58.85
-66.53
-69.14
-67.26
-61.33
-51.47
-37.97
-21.75
-4.49
11.56
24.11
31.62
33.34
29.19
19.80
6.47
-8.32
-20.90
-27.04
-23.28
-8.13
17.06
48.44
80.76
108.15
125.70
130.59
122.69
104.56
81.02
58.01
40.99
33.28
34.91
42.53
50.56
53.15
46.44
30.14
7.45
-16.39
-36.44
-49.97
-56.77
-58.45
-56.86
-53.01
-47.01
-39.03
-30.43
-23.94
-22.57
-27.60
-37.29
-47.34
-52.99
-51.69
-44.65
-36.23
-31.86
-34.94
-44.72
-56.48
-63.74
-61.47
-48.40
-27.38
-3.52
18.87
36.98
50.10
58.41
61.76
59.83
53.76
47.45
47.04
57.22
78.63
106.77
133.44
150.64
154.60
147.46
134.34
121.43
111.59
102.53
88.83
66.06
34.28
-1.50
-34.24
-58.85
-74.43
-84.06
-92.17
-101.35
-111.02
-118.31
-120.42
-116.76
-109.41
-101.78
-96.93
-96.10
-97.85
-98.89
