1671003447.00
64.000000
-0.00
-0.00
-0.00
-0.00
-0.00
-0.00
-0.00
-0.00
-0.00
-0.00
0.00
0.01
0.01
-0.00
-0.03
-0.05
-0.05
0.00
0.13
0.36
0.66
1.01
1.37
1.72
2.06
2.40
2.79
3.24
3.80
4.42
5.06
5.66
6.20
6.68
7.15
7.68
8.31
9.14
10.09
11.04
11.88
12.56
13.14
13.76
14.65
15.96
17.91
20.32
22.90
25.38
27.58
29.57
31.68
34.32
37.81
42.54
48.15
54.10
59.83
64.97
69.58
74.14
79.34
85.71
93.76
103.00
112.62
121.73
129.77
136.75
143.30
150.75
157.77
166.64
177.95
191.79
206.97
220.57
228.25
225.36
208.53
176.87
132.76
80.05
23.07
-34.94
-92.44
-149.16
-205.23
-260.37
-313.74
-363.87
-409.83
-450.91
-486.50
-515.74
-537.23
-549.22
-549.96
-538.37
-514.21
-478.67
-433.88
-382.45
-327.02
-269.84
-212.63
-156.66
-102.94
-52.35
-5.87
35.63
71.50
101.45
125.63
144.54
158.90
169.39
176.66
181.09
182.96
182.50
180.00
175.78
170.26
163.84
156.88
149.62
142.19
134.67
127.10
119.51
111.98
104.58
97.36
90.40
83.71
77.32
71.23
65.46
60.01
54.89
50.13
45.71
41.64
37.92
34.53
31.49
28.76
26.36
24.28
22.52
21.07
19.92
19.05
18.47
18.14
18.06
18.19
18.53
19.06
19.78
20.67
21.71
22.90
24.19
25.54
26.87
28.07
29.01
29.58
29.64
29.05
27.76
25.71
22.93
19.53
15.59
11.31
6.91
2.58
-1.48
-5.12
-8.23
-10.78
-12.78
-14.29
-15.40
-16.19
-16.77
-17.20
-17.51
-17.69
-17.70
-17.46
-16.88
-15.87
-14.41
-12.48
-10.07
-7.21
-3.98
-0.45
3.29
7.07
10.78
14.25
17.37
20.12
22.53
24.60
26.31
27.70
28.79
29.68
30.40
31.07
31.91
33.22
35.19
37.99
41.72
46.34
51.79
57.77
64.12
70.75
77.65
84.65
91.49
97.96
103.46
107.61
109.94
110.42
109.25
107.00
103.63
98.76
91.76
80.84
66.80
49.97
31.10
11.25
-7.91
-25.90
-42.81
-58.88
-75.78
-94.80
-116.79
-141.44
-167.55
-192.52
-215.32
-235.58
-252.99
-269.08
-284.90
-300.60
-314.79
-325.15
-327.81
-321.40
-306.07
-270.88
-210.91
-127.72
-29.88
70.46
153.39
216.00
260.44
289.86
306.91
313.56
310.04
296.20
273.22
243.80
213.03
184.28
159.67
140.71
125.74
112.35
97.01
77.68
54.64
31.34
10.95
-4.26
-12.57
-16.22
-18.80
-26.28
-42.81
-69.27
-102.29
-137.30
-170.17
-197.34
-220.36
-242.76
-271.85
-313.88
-372.25
-446.55
-533.09
-625.62
-713.97
-789.88
-822.69
-791.81
-694.01
-547.14
-381.32
-223.85
-102.55
-12.89
54.93
109.11
150.89
179.59
197.84
209.41
220.03
234.96
259.02
291.34
328.88
365.24
394.79
414.15
422.50
421.51
413.76
403.02
390.23
375.73
358.14
336.31
309.71
278.17
241.66
199.43
150.75
93.34
26.04
-50.36
-131.41
-208.93
-272.35
-310.88
-316.83
-287.86
-229.32
-152.46
-71.57
0.18
54.19
87.58
102.37
102.89
93.19
75.05
48.34
12.67
-30.44
-76.22
-117.02
-144.38
-152.03
-138.28
-106.51
-63.47
-16.30
30.19
74.71
118.74
164.63
213.58
264.47
314.10
357.99
391.78
412.16
417.74
409.19
389.04
361.03
329.05
296.55
266.32
240.72
222.00
212.19
212.30
221.38
236.04
250.89
260.18
259.61
247.80
226.36
199.00
169.69
141.15
114.10
87.62
60.08
30.13
-2.70
-37.89
-74.36
-110.71
-145.57
-177.69
-206.23
-230.77
-251.45
-268.77
-283.38
-295.64
-305.41
-312.08
-314.91
-313.54
-308.36
-300.69
-292.68
-287.17
-287.47
-296.84
-317.44
-348.89
-387.27
-425.26
-454.03
-466.26
-458.94
-434.50
-399.49
-361.62
-326.52
-296.24
-269.65
-244.47
-219.19
-193.92
-169.73
-147.31
-125.92
-103.49
-77.57
-46.63
-10.86
27.65
65.93
101.19
131.84
157.81
180.29
201.03
221.77
244.02
268.96
296.90
326.46
353.66
372.26
375.47
358.57
321.31
268.64
209.17
152.32
105.38
72.06
52.59
44.81
45.40
50.46
55.79
57.35
52.24
39.81
22.14
3.54
-11.16
-18.14
-15.74
-4.66
12.70
33.14
53.54
71.27
84.54
92.39
94.68
91.95
85.26
75.85
65.00
53.69
42.37
31.05
19.40
7.10
-5.91
-19.26
-32.32
-44.39
-55.09
-64.55
-73.38
-82.43
-92.41
-103.60
-115.64
-127.72
-138.79
-147.78
-153.79
-156.15
-154.45
-148.51
-138.44
-124.70
-108.07
-89.45
-69.67
-49.18
-27.94
-5.67
17.74
41.80
65.26
86.29
102.90
113.69
118.29
117.53
113.25
107.68
102.74
99.41
97.58
96.18
93.75
89.02
81.41
71.10
58.94
46.16
34.01
23.53
15.38
9.67
5.91
3.04
-0.20
-4.80
-10.93
-17.89
-24.23
-28.46
-29.63
-27.75
-23.76
-19.09
-15.16
-12.97
-12.94
-14.95
-18.51
-23.00
-27.89
-32.76
-37.28
-41.12
-43.79
-44.69
-43.20
-38.98
-32.21
-23.60
-14.26
-5.45
1.78
6.78
9.43
10.00
9.09
7.27
4.86
1.69
-2.67
-8.77
-16.83
-26.56
-37.15
-47.49
-56.39
-62.68
-65.46
-64.14
-58.66
-49.61
-38.16
-25.92
-14.48
-5.01
1.96
6.45
8.86
9.57
8.82
6.71
3.37
-0.86
-5.33
-9.20
-11.62
-12.08
-10.64
-7.95
-4.99
-2.73
-1.83
-2.50
-4.60
-7.81
-11.69
-15.77
-19.57
-22.71
-25.09
-27.05
-29.29
-32.68
-37.83
-44.82
-52.97
-61.02
-67.46
-71.03
-71.09
-67.84
-62.22
-55.59
-49.35
-44.44
-41.14
-39.08
-37.71
-36.70
-36.33
-37.62
-41.78
-49.42
-59.65
-69.59
-74.75
-70.32
-52.90
-21.91
19.95
67.26
113.25
151.41
176.87
187.34
183.46
168.54
147.72
126.64
109.86
99.63
95.53
95.10
95.16
93.15
87.83
79.20
67.88
54.76
40.87
27.49
16.18
8.46
5.20
6.16
9.98
14.56
17.92
18.95
17.69
15.00
12.12
9.93
8.61
7.63
6.17
3.54
-0.43
-5.32
-10.27
-14.34
-16.94
-17.99
-17.88
-17.25
-16.74
-16.78
-17.59
-19.24
-21.67
-24.70
-28.01
-31.21
-33.91
-35.82
-36.79
-36.93
-36.56
-36.18
-36.51
-38.31
-42.16
-48.09
-55.19
-61.69
-65.32
-64.16
-57.35
-45.54
-30.60
-15.03
-1.07
9.86
17.34
21.67
23.64
24.06
23.68
23.07
22.55
22.26
22.09
21.81
21.24
20.35
19.33
18.53
18.26
18.58
19.23
19.74
19.52
18.19
15.65
12.11
8.00
3.83
-0.02
-3.31
-6.04
-8.43
-10.83
-13.66
-17.20
-21.42
-25.98
-30.21
-33.26
-34.29
-32.70
-28.28
-21.23
-12.35
-2.83
5.94
12.77
16.97
18.51
18.03
16.41
14.45
12.57
10.88
9.27
7.71
6.33
5.27
4.62
4.29
4.07
3.70
3.05
2.16
1.14
0.18
-0.69
-1.46
-2.35
-3.60
-5.44
-7.98
-11.12
-14.63
-18.16
-21.46
-24.51
-27.61
-31.17
-35.61
-40.96
-46.79
-52.09
-55.65
-56.39
-53.75
-48.09
-40.54
-32.73
-26.33
-22.50
-21.65
-23.43
-27.01
-31.47
-36.19
-40.96
-46.05
-51.95
-59.00
-67.07
-75.38
-82.67
-87.58
-89.28
-87.89
-84.74
-81.95
-81.84
-86.14
-95.38
-108.62
-123.56
-136.86
-144.81
-144.14
-132.93
-111.30
-81.57
-47.61
-13.77
16.32
40.26
56.80
65.31
65.17
55.61
35.97
6.08
-33.21
-79.90
-130.59
-180.70
-224.82
-257.59
-274.93
-275.25
-260.06
-233.68
-201.89
-170.40
-143.22
-121.99
-105.98
-92.75
-79.12
-62.21
-40.09
-12.08
21.38
58.91
98.38
136.93
171.57
200.08
222.35
241.12
261.42
288.22
323.51
364.16
402.36
428.79
437.04
426.67
403.23
374.98
348.53
325.83
304.18
279.09
247.63
210.43
171.09
133.79
100.98
72.44
46.49
21.94
-0.69
-19.22
-31.44
-37.04
-38.68
-41.81
-53.37
-80.08
-126.56
-193.64
-277.24
-368.57
-455.81
-527.26
-574.86
-596.45
-595.77
-580.09
-556.77
-530.68
-503.40
-474.50
-443.57
-411.52
-380.41
-352.14
-327.18
-304.17
-280.70
-254.76
-225.86
-195.31
-165.65
-139.40
-117.93
-100.97
-86.79
-73.14
-58.24
-41.44
-23.44
-5.67
10.49
24.53
37.09
49.81
64.60
82.88
105.02
130.22
157.04
184.06
210.45
236.26
262.23
289.31
318.39
350.25
385.53
424.17
464.72
503.69
535.79
555.34
558.13
543.03
512.24
470.26
421.96
371.24
320.57
271.67
226.31
186.60
154.51
130.91
115.27
105.92
100.94
99.12
100.11
104.11
111.18
120.77
131.50
141.46
148.83
152.47
152.40
149.71
146.24
143.85
143.80
146.40
151.16
157.27
164.05
171.33
179.20
188.03
198.04
209.45
222.15
235.45
247.52
255.29
255.23
244.76
223.80
195.22
163.91
134.60
109.90
89.59
71.48
53.46
35.22
18.71
7.03
2.68
6.08
15.31
27.05
37.84
45.15
47.74
45.46
38.40
26.47
9.04
-15.12
-47.22
-88.25
-138.78
-199.21
-269.57
-349.04
-434.66
-520.67
-598.71
-659.72
-696.77
-707.49
-694.81
-665.54
-627.54
-586.97
-547.07
-508.58
-471.27
-435.29
-401.50
-370.81
-343.17
-317.33
-291.18
-262.89
-231.77
-198.61
-165.42
-134.32
-106.64
-82.36
-60.11
-37.81
-13.52
13.92
44.57
77.35
110.35
141.15
167.33
186.96
199.13
204.09
202.99
197.37
188.53
177.12
163.18
146.45
126.75
104.23
79.43
53.06
25.92
-1.29
-28.04
-54.12
-79.81
-105.84
-132.88
-160.89
-188.58
-213.49
-232.50
-243.03
-243.78
-235.07
-218.45
-196.09
-170.11
-142.35
-114.41
-87.64
-62.89
-40.05
-17.82
5.93
33.28
65.09
100.31
136.14
169.24
197.06
219.20
237.80
257.04
281.89
316.25
361.25
413.85
466.75
509.65
532.55
529.62
502.25
459.75
417.03
389.92
390.06
421.11
477.93
548.67
618.82
675.57
710.92
722.62
713.30
688.31
653.35
612.86
569.57
524.81
479.27
433.34
387.08
339.80
290.32
237.52
181.32
123.43
67.04
15.83
-27.37
-61.70
-88.50
-110.29
-129.78
-148.81
-167.79
-185.91
-201.88
-214.77
-224.66
-232.95
-241.33
-251.67
-265.16
-281.60
-299.08
-314.32
-323.63
-324.43
-316.54
-300.75
-279.35
-255.03
-229.95
-205.25
-181.12
-157.46
-134.69
-114.39
-96.51
-80.84
-66.99
-54.80
-44.29
-35.61
-28.35
-21.26
-13.04
0.70
23.25
55.59
96.05
141.50
189.13
237.69
287.07
322.02
330.79
306.32
251.10
177.08
99.98
32.65
-18.31
-48.55
-65.71
-75.51
-81.88
-87.00
-92.27
-99.00
-108.95
-123.15
-142.21
-167.67
-198.29
-233.03
-271.79
-315.93
-367.70
-428.68
-497.51
-568.93
-634.96
-684.90
-710.67
-709.94
-686.90
-650.26
-609.53
-571.56
-539.34
-513.05
-490.67
-470.70
-452.82
-437.28
-423.96
-411.69
-398.59
-382.98
-364.36
-342.83
-319.37
-294.97
-270.10
-244.36
-216.71
-185.92
-151.14
-112.45
-70.75
-27.53
15.61
57.47
97.49
135.68
172.33
207.59
241.11
271.94
298.69
319.87
334.36
341.78
342.68
338.46
331.02
322.34
313.89
306.40
299.90
294.12
288.95
284.81
282.80
284.31
290.64
302.52
320.04
342.59
368.96
397.21
424.74
448.40
465.11
472.67
470.17
457.84
436.20
405.22
363.69
309.80
242.62
163.75
78.22
-6.11
-80.57
-138.32
-176.33
-195.94
-201.88
-200.39
-197.31
-196.66
-200.30
-208.05
-218.29
-228.68
-236.80
-240.84
-239.86
-233.91
-223.76
-210.43
-194.98
-178.45
-162.15
-147.48
-135.50
-126.27
-118.59
-110.17
-98.75
-83.13
-63.72
-42.36
-21.39
-2.70
12.85
25.42
35.73
44.60
52.49
59.57
65.64
70.39
73.52
74.95
74.79
73.45
71.33
68.73
65.74
62.20
57.86
52.54
46.18
38.87
30.94
22.91
15.45
9.36
5.30
3.68
4.47
7.21
11.09
15.23
18.82
21.31
22.45
22.34
21.31
19.79
18.17
16.72
15.53
14.55
13.68
12.78
11.78
10.65
9.37
7.97
6.52
5.11
3.85
2.73
1.67
0.44
-1.25
-3.59
-6.58
-9.93
-13.26
-16.21
-18.64
-20.67
-22.73
-25.21
-28.40
-32.16
-35.90
-38.70
-39.48
-37.51
-32.66
-25.58
-17.60
-10.37
-5.32
-3.17
-3.64
-5.49
-6.95
-6.34
-2.72
3.80
12.08
20.38
26.88
30.14
29.47
24.96
17.56
8.88
0.94
-4.36
-5.77
-3.06
2.80
10.17
17.24
22.74
26.10
27.38
26.99
25.40
23.01
20.21
17.29
14.39
11.45
8.27
4.69
0.84
-2.77
-5.37
-6.31
-5.23
-2.33
1.74
6.12
10.03
12.98
14.81
15.53
15.27
14.11
12.16
9.64
6.93
4.48
2.77
1.97
1.98
2.34
2.51
2.16
1.24
0.05
-1.02
-1.72
-2.05
-2.26
-2.64
-3.40
-4.59
-6.08
-7.78
-9.68
-11.92
-14.71
-18.16
-22.17
-26.30
-29.92
-32.29
-32.78
-31.07
-27.23
-21.65
-14.98
-7.93
-1.19
4.73
9.48
12.94
15.12
16.12
16.17
15.48
14.35
13.05
11.75
10.56
9.49
8.51
7.60
6.76
6.06
5.46
4.86
4.07
2.95
1.43
-0.36
-2.23
-4.03
-5.74
-7.42
-9.21
-11.26
-13.61
-16.22
-18.86
-21.05
-22.11
-21.36
-18.38
-13.33
-6.95
-0.33
5.48
9.87
12.77
14.54
15.64
16.34
16.65
16.43
15.62
14.27
12.62
10.90
9.32
7.98
6.90
6.02
5.20
4.26
3.04
1.52
-0.15
-1.74
-3.08
-4.21
-5.33
-6.80
-8.89
-11.68
-15.01
-18.60
-22.05
-24.95
-26.84
-27.25
-25.84
-22.56
-17.85
-12.53
-7.59
-3.67
-0.74
1.96
5.56
10.90
18.00
25.91
32.97
37.48
38.38
35.56
29.84
22.52
14.97
8.30
3.24
0.20
-0.71
0.33
2.79
5.83
8.55
10.19
10.35
8.94
6.20
2.50
-1.74
-6.17
-10.53
-14.61
-18.24
-21.13
-22.96
-23.39
-22.16
-19.26
-14.98
-9.82
-4.41
0.69
5.09
8.46
10.69
11.70
11.52
10.36
8.49
6.26
3.97
1.87
0.12
-1.18
-1.97
-2.28
-2.26
-2.14
-2.17
-2.58
-3.44
-4.71
-6.20
-7.73
-9.23
-10.75
-12.52
-14.84
-17.88
-21.50
-25.29
-28.50
-30.31
-30.04
-27.33
-22.34
-15.65
-8.20
-0.98
5.15
9.67
12.47
13.71
13.78
13.06
11.86
10.34
8.57
6.58
4.47
2.50
0.95
0.12
0.08
0.55
0.95
0.62
-0.84
-3.34
-6.32
-9.07
-11.14
-12.62
-14.12
-16.39
-19.88
-24.37
-29.10
-32.99
-35.08
-34.80
-32.05
-27.15
-20.81
-14.07
-8.21
-4.43
-3.41
-4.94
-7.72
-9.68
-8.70
-3.42
6.07
18.08
29.65
37.45
38.98
33.47
22.28
8.59
-3.78
-11.74
-13.89
-10.84
-4.56
2.59
8.76
12.93
14.84
14.51
11.99
7.38
0.98
-6.48
-13.94
-20.23
-24.42
-26.05
-25.15
-22.09
-17.47
-11.90
-5.89
0.10
5.77
10.91
15.39
19.14
22.11
24.23
25.45
25.75
25.17
23.85
22.01
19.85
17.58
15.41
13.51
12.05
11.11
10.68
10.49
10.17
9.29
7.63
5.23
2.37
-0.50
-3.10
-5.34
-7.39
-9.56
-12.13
-15.24
-18.83
-22.62
-26.12
-28.68
-29.55
-28.12
-24.13
-17.86
-10.13
-2.11
5.10
10.77
14.75
17.34
19.02
20.14
20.80
20.91
20.40
19.43
18.41
17.80
17.87
18.45
18.98
18.85
17.70
15.75
13.69
12.34
12.15
12.91
13.80
13.79
12.24
9.15
5.17
1.21
-2.03
-4.42
-6.27
-8.08
-10.28
-13.00
-16.17
-19.53
-22.68
-24.98
-25.49
-23.15
-17.13
-7.37
5.19
18.68
30.85
39.68
43.98
43.54
38.94
31.29
21.85
11.86
2.51
-5.20
-10.55
-13.31
-13.72
-12.43
-10.23
-7.79
-5.54
-3.71
-2.37
-1.46
-0.91
-0.58
-0.32
-0.10
-0.04
-0.39
-1.49
-3.49
-6.29
-9.50
-12.67
-15.47
-17.83
-19.89
-21.74
-23.25
-23.96
-23.27
-20.71
-16.20
-10.19
-3.45
3.15
8.92
13.53
17.00
19.54
21.30
22.35
22.62
22.09
20.89
19.35
17.88
16.74
15.92
15.22
14.39
13.41
12.62
12.53
13.54
15.59
18.13
20.31
21.38
21.08
19.68
17.80
16.02
14.64
13.57
12.52
11.22
9.51
7.39
4.94
2.32
-0.22
-2.25
-3.25
-2.71
-0.40
3.48
8.28
13.22
17.54
20.85
23.09
24.42
24.94
24.69
23.62
21.80
19.42
16.82
14.32
12.16
10.36
8.82
7.42
6.12
4.96
4.03
3.35
2.87
2.38
1.66
0.58
-0.84
-2.42
-3.94
-5.22
-6.14
-6.79
-7.39
-8.25
-9.64
-11.69
-14.34
-17.36
-20.40
-23.09
-25.08
-26.15
-26.08
-24.72
-22.05
-18.22
-13.60
-8.78
-4.39
-0.98
1.17
2.11
2.16
1.79
1.47
1.47
1.84
2.40
2.82
2.87
2.45
1.70
0.87
0.20
-0.25
-0.59
-1.02
-1.73
-2.75
-4.00
-5.34
-6.67
-7.93
-9.16
-10.40
-11.64
-12.90
-14.17
-15.51
-16.97
-18.59
-20.23
-21.61
-22.35
-22.10
-20.69
-18.18
-14.83
-11.00
-6.98
-2.99
0.80
4.25
7.12
9.14
10.15
10.15
9.39
8.24
7.05
6.11
5.46
5.08
4.87
4.74
4.64
4.52
4.32
4.00
3.53
2.92
2.22
1.47
0.68
-0.16
-1.07
-2.05
-3.09
-4.19
-5.38
-6.67
-8.04
-9.45
-10.79
-11.94
-12.67
-12.73
-11.90
-10.01
-7.14
-3.63
-0.04
3.11
5.49
7.03
7.89
8.26
8.27
7.91
7.13
5.97
4.54
3.02
1.62
0.49
-0.25
-0.53
-0.29
0.40
1.34
2.25
2.85
2.99
2.61
1.77
0.49
-1.27
-3.51
-6.12
-8.90
-11.65
-14.25
-16.77
-19.38
-22.13
-24.83
-26.99
-28.02
-27.42
-25.04
-21.16
-16.41
-11.54
-7.23
-3.96
-1.89
-0.95
-0.93
-1.63
-2.85
-4.40
-6.17
-8.04
-9.89
-11.68
-13.45
-15.25
-17.07
-18.74
-20.00
-20.57
-20.34
-19.54
-18.65
-18.29
-18.91
-20.56
-22.79
-24.76
-25.48
-24.23
-20.84
-15.72
-9.81
-4.25
-0.02
2.28
2.55
1.25
-0.81
-2.65
-3.40
-2.48
0.28
4.58
9.85
15.41
20.62
25.01
28.29
30.27
30.80
29.90
27.72
24.67
21.34
18.32
16.04
14.58
13.69
12.92
11.83
10.19
8.10
5.90
4.03
2.73
2.04
1.71
1.37
0.71
-0.41
-1.87
-3.44
-4.87
-6.01
-6.93
-7.85
-9.01
-10.63
-12.83
-15.59
-18.72
-21.85
-24.53
-26.23
-26.49
-25.07
-21.99
-17.58
-12.41
-7.15
-2.46
1.15
3.47
4.58
4.77
4.42
3.81
3.10
2.29
1.39
0.45
-0.39
-1.01
-1.36
-1.52
-1.55
-1.45
-1.09
-0.30
0.95
2.45
3.68
4.10
3.37
1.48
-1.19
-4.09
-6.75
-8.95
-10.84
-12.77
-15.08
-17.95
-21.24
-24.61
-27.70
-30.29
-32.37
-34.04
-35.33
-36.11
-36.06
-34.85
-32.19
-27.96
-22.17
-14.97
-6.67
2.08
10.20
16.25
18.84
17.25
11.88
4.52
-2.21
-5.68
-4.32
1.86
11.35
21.79
30.97
37.51
41.12
42.27
41.72
40.02
37.52
34.45
31.16
28.11
25.68
23.90
22.44
20.64
17.83
13.72
8.44
2.52
-3.33
-8.60
-13.02
-16.70
-19.93
-23.04
-26.13
-29.06
-31.40
-32.59
-32.12
-29.73
-25.52
-19.94
-13.73
-7.66
-2.35
1.94
5.32
8.06
10.34
12.20
13.50
14.05
13.86
13.19
12.45
11.99
11.90
11.98
11.95
11.61
11.10
10.70
10.75
11.32
12.21
12.98
13.25
12.84
11.78
10.27
8.47
6.46
4.13
1.42
-1.63
-4.82
-7.87
-10.57
-12.93
-15.15
-17.60
-20.62
-24.33
-28.52
-32.64
-35.87
-37.41
-36.65
-33.42
-28.09
-21.41
-14.29
-7.58
-1.77
2.99
6.85
10.07
12.89
15.35
17.39
18.86
19.50
19.15
17.76
15.49
12.79
10.26
8.50
7.81
8.06
8.75
9.23
9.05
8.19
6.90
5.61
4.61
3.93
3.51
3.18
2.86
2.49
1.98
1.20
-0.01
-1.72
-3.86
-6.26
-8.78
-11.35
-13.99
-16.73
-19.39
-21.63
-22.87
-22.51
-20.13
-15.65
-9.43
-2.18
5.22
11.95
17.46
21.54
24.24
25.77
26.43
26.56
26.44
26.36
26.49
26.97
27.82
29.00
30.42
31.97
33.49
34.81
35.77
36.28
36.35
36.07
35.56
34.79
33.69
32.08
29.83
26.85
23.21
19.02
14.47
9.78
5.14
0.71
-3.44
-7.26
-10.73
-13.88
-16.77
-19.53
-22.27
-24.95
-27.32
-28.92
-29.25
-27.91
-24.83
-20.32
-15.05
-9.77
-5.04
-1.20
1.73
3.80
5.08
5.60
5.38
4.63
3.68
2.91
2.60
2.82
3.43
4.19
4.96
5.70
6.43
7.10
7.59
7.78
7.67
7.38
7.11
6.97
6.89
6.63
5.87
4.41
2.26
-0.34
-3.08
-5.73
-8.18
-10.44
-12.61
-14.74
-16.89
-19.00
-20.99
-22.71
-23.93
-24.39
-23.78
-21.90
-18.70
-14.38
-9.35
-4.11
0.86
5.22
8.72
11.26
12.88
13.70
13.93
13.82
13.56
13.24
12.81
12.19
11.36
10.37
9.39
8.55
7.92
7.50
7.18
6.89
6.53
5.92
4.87
3.19
0.93
-1.68
-4.16
-6.07
-7.15
-7.53
-7.67
-8.12
-9.33
-11.41
-14.21
-17.32
-20.23
-22.38
-23.29
-22.54
-19.93
-15.62
-10.12
-4.21
1.28
5.73
8.85
10.73
11.63
11.82
11.53
10.93
10.24
9.69
9.49
9.67
10.08
10.45
10.59
10.45
10.18
9.95
9.94
10.13
10.40
10.57
10.45
9.96
9.06
7.74
6.06
4.05
1.83
-0.44
-2.57
-4.47
-6.10
-7.55
-9.03
-10.77
-12.85
-15.15
-17.28
-18.67
-18.76
-17.27
-14.28
-10.18
-5.57
-1.08
2.82
5.89
8.09
9.47
10.18
10.41
10.33
10.10
9.82
9.55
9.26
8.91
8.49
8.02
7.57
7.18
6.91
6.79
6.72
6.57
6.15
5.25
3.81
1.97
0.01
-1.77
-3.19
-4.31
-5.33
-6.56
-8.17
-10.17
-12.43
-14.82
-17.25
-19.68
-21.97
-23.82
-24.80
-24.51
-22.75
-19.66
-15.67
-11.34
-7.14
-3.33
-0.03
2.72
4.82
6.08
6.30
5.34
3.19
0.05
-3.77
-7.84
-11.67
-14.69
-16.36
-16.25
-14.22
-10.53
-5.80
-0.85
3.50
6.69
8.49
8.97
8.35
6.90
4.87
2.51
0.02
-2.43
-4.72
-6.81
-8.77
-10.72
-12.86
-15.29
-18.01
-20.82
-23.34
-24.99
-25.26
-23.81
-20.68
-16.27
-11.20
-6.15
-1.61
2.18
5.18
7.51
9.30
10.58
11.31
11.44
10.97
10.06
9.00
8.17
7.74
7.75
8.03
8.33
8.48
8.44
8.28
8.14
8.07
8.08
8.11
8.12
8.04
7.81
7.34
6.55
5.40
3.92
2.21
0.36
-1.61
-3.73
-6.02
-8.43
-10.81
-12.91
-14.45
-15.15
-14.83
-13.42
-11.07
-8.05
-4.74
-1.53
1.30
3.54
5.14
6.16
6.70
6.88
6.82
6.64
6.46
6.40
6.56
6.99
7.66
8.46
9.21
9.75
9.98
9.99
9.93
9.99
10.21
10.42
10.33
9.66
8.27
6.19
3.63
0.85
-1.90
-4.41
-6.56
-8.34
-9.88
-11.40
-13.08
-15.00
-17.01
-18.73
-19.69
-19.44
-17.77
-14.76
-10.73
-6.27
-1.95
1.74
4.52
6.36
7.40
7.86
7.98
7.95
7.90
7.88
7.89
7.93
7.96
7.93
7.79
7.51
7.10
6.66
6.33
6.26
6.54
7.08
7.64
7.87
7.42
6.13
4.16
1.85
-0.38
-2.28
-3.88
-5.37
-6.97
-8.83
-10.99
-13.42
-16.08
-18.89
-21.62
-23.82
-24.87
-24.24
-21.75
-17.65
-12.63
-7.49
-2.81
1.22
4.63
7.59
10.09
11.95
12.93
12.90
11.95
10.32
8.39
6.52
4.99
3.98
3.57
3.70
4.23
4.98
5.76
6.44
6.88
6.98
6.65
5.89
4.81
3.63
2.52
1.56
0.61
-0.55
-2.03
-3.77
-5.59
-7.37
-9.16
-11.22
-13.76
-16.71
-19.61
-21.65
-22.04
-20.34
-16.66
-11.61
-6.02
-0.70
3.83
7.34
9.81
11.31
11.94
11.87
11.28
10.36
9.29
8.15
6.94
5.64
4.28
3.04
2.12
1.72
1.90
2.59
3.58
4.70
5.75
6.56
6.95
6.70
5.68
3.88
1.52
-1.02
-3.32
-5.10
-6.38
-7.48
-8.90
-11.07
-14.18
-18.02
-21.99
-25.27
-27.11
-26.99
-24.87
-21.11
-16.30
-11.11
-6.07
-1.52
2.42
5.68
8.22
9.99
10.96
11.14
10.72
9.94
9.06
8.28
7.65
7.12
6.64
6.17
5.78
5.59
5.69
6.07
6.64
7.17
7.49
7.46
6.97
6.06
4.76
3.19
1.50
-0.16
-1.69
-3.16
-4.78
-6.85
-9.51
-12.62
-15.68
-18.04
-19.09
-18.52
-16.42
-13.17
-9.28
-5.21
-1.28
2.31
5.43
7.94
9.83
11.16
12.05
12.67
13.10
13.23
12.97
12.21
11.03
9.66
8.40
7.46
6.91
6.60
6.36
6.03
5.59
5.16
4.84
4.64
4.44
4.01
3.14
1.76
-0.01
-1.84
-3.37
-4.35
-4.83
-5.13
-5.78
-7.29
-10.01
-14.05
-19.30
-25.34
-31.43
-36.43
-39.05
-38.18
-33.40
-25.26
-15.19
-5.05
3.56
9.79
13.64
15.72
16.78
17.30
17.47
17.27
16.72
16.03
15.55
15.69
16.73
18.78
21.59
24.66
27.29
28.84
28.95
27.75
25.81
24.05
23.31
24.03
26.00
28.47
30.45
31.20
30.54
29.01
27.72
28.04
31.18
37.85
47.99
60.62
73.93
85.47
92.57
93.07
86.11
72.70
55.89
39.94
29.05
25.56
28.82
34.75
37.39
31.46
14.98
-9.37
-35.14
-54.82
-63.07
-58.76
-44.83
-26.09
-6.66
11.27
26.78
38.78
45.43
45.19
38.93
30.53
25.87
29.44
40.65
52.62
54.71
37.67
-1.07
-55.14
-111.73
-156.19
-177.79
-173.34
-147.48
-110.20
-72.95
-45.07
-31.86
-35.08
-53.21
-82.75
-119.35
-158.59
-196.04
-227.70
-250.36
-256.60
-241.85
-205.49
-151.98
-89.82
-28.30
25.70
69.10
102.27
127.29
145.62
157.98
164.28
164.45
158.15
145.56
127.48
105.42
81.16
56.02
30.95
6.41
-17.73
-42.24
-68.18
-97.08
-128.74
-163.90
-203.95
-249.51
-298.96
-347.38
-387.21
-410.09
-410.21
-386.83
-344.54
-291.68
-236.98
-186.71
-143.56
-107.73
-77.84
-52.85
-32.55
-16.16
-2.44
10.38
23.96
39.05
54.51
69.32
82.38
93.12
103.31
115.53
132.09
154.12
181.25
210.56
239.87
267.34
291.45
313.14
333.73
353.77
372.57
388.27
396.95
396.87
387.67
356.83
297.84
211.10
104.22
-10.56
-111.20
-193.00
-256.85
-305.14
-340.14
-363.86
-376.53
-378.88
-372.66
-360.48
-346.68
-333.13
-320.41
-308.58
-295.98
-280.94
-262.84
-242.16
-220.18
-199.56
-181.15
-164.88
-150.41
-136.42
-121.64
-105.60
-88.61
-71.55
-56.19
-43.22
-32.74
-24.68
-18.47
-13.50
-9.56
-6.76
-5.42
-6.22
-9.20
-14.05
-20.29
-27.23
-34.16
-40.56
-46.09
-50.62
-54.19
-56.75
-58.22
-58.56
-57.83
-56.20
-53.93
-51.33
-48.75
-46.47
-44.70
-43.50
-42.87
-42.70
-42.93
-43.46
-44.28
-45.32
-46.45
-47.43
-47.91
-47.54
-45.99
-43.14
-39.11
-34.14
-28.50
-22.33
-15.47
-7.48
2.16
13.86
27.67
43.18
59.67
76.32
92.55
108.29
123.95
140.20
157.63
176.38
196.07
215.99
235.39
253.81
271.34
288.45
305.86
324.46
345.29
369.31
396.87
426.94
456.53
481.01
495.33
495.84
481.77
455.46
421.42
384.38
347.82
313.36
281.30
251.60
224.62
201.10
181.65
166.23
154.08
144.16
135.72
128.55
122.80
118.63
115.72
113.17
109.75
104.31
96.34
86.17
75.04
64.53
56.12
50.48
47.22
44.95
41.79
36.18
27.43
15.97
3.09
-9.65
-21.04
-30.57
-38.38
-44.95
-50.70
-55.73
-59.82
-62.73
-64.36
-64.94
-64.88
-64.51
-63.91
-62.84
-61.01
-58.24
-54.64
-50.52
-46.28
-42.32
-38.91
-36.44
-35.26
-35.55
-36.98
-38.55
-38.90
-36.98
-32.77
-27.50
-23.35
-22.30
-25.30
-31.69
-39.65
-47.12
-52.69
-55.97
-57.44
-57.75
-57.31
-56.06
-53.84
-50.75
-47.34
-44.48
-42.95
-43.02
-44.37
-46.23
-47.83
-48.67
-48.73
-48.30
-47.72
-47.17
-46.60
-45.80
-44.62
-43.02
-41.13
-39.22
-37.54
-36.28
-35.52
-35.18
-34.99
-34.61
-33.74
-32.22
-30.10
-27.65
-25.20
-22.99
-21.13
-19.59
-18.30
-17.16
-16.12
-15.09
-13.99
-12.69
-11.14
-9.32
-7.35
-5.42
-3.76
-2.54
-1.81
-1.46
-1.29
-1.01
-0.41
0.58
1.88
3.17
4.14
4.43
3.90
2.60
0.79
-1.17
-3.02
-4.73
-6.53
-8.75
-11.57
-14.86
-18.23
-21.20
-23.47
-25.05
-26.14
-26.89
-27.29
-27.20
-26.48
-25.16
-23.38
-21.30
-18.90
-15.98
-12.36
-8.10
-3.59
0.51
3.63
5.51
6.33
6.50
6.49
6.59
6.82
7.15
7.46
7.77
8.15
8.80
9.93
11.70
14.21
17.37
20.87
24.32
27.28
29.39
30.43
30.20
28.50
25.07
19.75
12.64
4.18
-4.84
-13.44
-20.62
-25.55
-27.73
-27.10
-24.25
-20.33
-16.80
-15.01
-15.59
-18.16
-21.41
-23.65
-23.40
-19.95
-13.50
-5.00
4.13
12.42
18.62
21.85
21.81
18.77
13.48
7.12
1.01
-3.60
-5.80
-5.20
-2.14
2.43
7.14
10.75
12.64
12.98
12.60
12.41
12.93
14.03
15.24
16.01
16.08
15.48
14.34
12.74
10.65
8.07
5.17
2.30
-0.14
-1.97
-3.34
-4.76
-6.89
-10.32
-15.36
-21.83
-28.90
-35.29
-39.46
-40.22
-37.14
-30.69
-22.09
-12.87
-4.43
2.19
6.43
8.26
8.11
6.79
5.27
4.38
4.55
5.71
7.44
9.24
10.81
12.13
13.28
14.31
15.10
15.49
15.46
15.17
14.82
14.47
13.87
12.51
9.93
5.87
0.53
-5.59
-11.76
-17.30
-21.63
-24.37
-25.30
-24.49
-22.29
-19.33
-16.34
-13.90
-12.24
-11.12
-10.13
-8.97
-7.76
-6.97
-7.14
-8.52
-10.86
-13.49
-15.61
-16.73
-16.83
-16.35
-15.90
-15.92
-16.47
-17.20
-17.53
-16.84
-14.79
-11.49
-7.47
-3.58
-0.65
0.80
0.82
-0.06
-1.08
-1.64
-1.63
-1.40
-1.50
-2.32
-3.71
-5.08
-5.56
-4.52
-1.74
2.42
7.26
11.96
15.85
18.30
18.71
16.71
12.37
6.60
1.14
-2.04
-1.51
2.67
8.91
14.60
17.48
16.79
13.56
9.85
7.44
6.89
7.41
7.73
7.05
5.61
4.36
4.15
5.16
6.69
7.65
7.16
4.99
1.38
-3.23
-8.55
-14.36
-20.39
-26.14
-31.00
-34.43
-36.05
-35.49
-32.32
-26.09
-16.62
-4.30
9.59
23.08
34.09
41.09
43.64
42.48
39.19
35.63
33.34
33.06
34.71
37.46
39.97
40.92
39.28
34.70
27.43
18.16
7.66
-3.47
-14.80
-25.95
-36.31
-45.06
-51.28
-54.28
-53.89
-50.61
-45.41
-39.42
-33.57
-28.37
-23.97
-20.32
-17.45
-15.42
-14.33
-14.08
-14.18
-13.87
-12.32
-9.01
-4.01
2.02
8.08
13.23
16.90
19.01
19.79
19.57
18.63
17.25
15.72
14.47
13.86
14.06
14.90
15.91
16.51
16.29
15.11
13.06
10.42
7.52
4.69
2.30
0.66
-0.08
-0.02
0.49
1.01
1.19
0.89
0.26
-0.45
-0.99
-1.19
-0.98
-0.38
0.55
1.64
2.64
3.13
2.66
0.88
-2.24
-6.32
-10.64
-14.35
-16.82
-18.00
-18.37
-18.86
-20.29
-23.07
-26.90
-30.99
-34.34
-36.10
-35.80
-33.32
-28.77
-22.36
-14.40
-5.33
4.14
13.20
21.02
27.03
31.13
33.62
35.05
35.97
36.68
37.29
37.82
38.41
39.36
40.92
42.94
44.64
44.71
41.69
34.71
24.00
10.90
-2.51
-14.18
-22.78
-28.03
-30.57
-31.54
-32.11
-33.16
-35.06
-37.62
-40.08
-41.34
-40.21
-35.98
-28.84
-19.92
-11.02
-3.91
0.51
2.47
3.28
4.65
7.87
13.12
19.29
24.09
24.48
17.51
1.24
-24.08
-55.26
-86.41
-110.43
-121.36
-116.59
-97.90
-70.56
-41.24
-15.54
3.52
15.51
21.58
23.15
21.36
17.17
11.91
7.38
5.45
7.27
12.64
20.10
27.43
32.62
34.51
33.15
29.43
24.68
20.09
16.43
14.03
12.91
13.07
14.48
17.13
20.82
25.08
29.13
32.03
32.99
31.53
27.69
21.95
15.20
8.50
2.87
-0.94
-2.48
-1.59
1.60
6.64
12.78
18.92
23.91
26.65
26.25
22.01
13.24
-0.58
-19.32
-41.74
-65.05
-85.42
-98.99
-103.26
-98.05
-85.47
-68.99
-52.06
-36.97
-24.56
-14.56
-6.26
0.94
7.25
12.56
16.60
19.01
19.52
17.96
14.44
9.43
3.77
-1.38
-4.82
-5.62
-3.43
1.34
7.59
13.75
18.27
20.00
18.47
14.11
8.13
2.30
-1.59
-2.29
0.42
5.52
11.15
15.33
16.67
14.87
10.51
4.57
-2.14
-9.16
-16.16
-22.50
-27.09
-28.63
-26.19
-19.69
-10.05
1.21
12.58
22.99
31.98
39.34
44.85
48.01
48.24
45.15
38.85
30.05
19.91
9.75
0.78
-6.09
-10.31
-11.69
-10.31
-6.68
-1.61
3.73
8.06
10.27
9.76
6.56
1.37
-4.76
-10.69
-15.54
-18.75
-20.11
-19.65
-17.59
-14.36
-10.54
-6.80
-3.72
-1.52
-0.02
1.29
2.94
5.15
7.62
9.63
10.35
9.24
6.45
2.74
-0.80
-3.24
-4.24
-4.13
-3.69
-3.79
-4.98
-7.38
-10.73
-14.58
-18.43
-21.91
-24.85
-27.27
-29.23
-30.81
-31.82
-31.81
-30.07
-25.92
-19.09
-10.04
-0.05
9.01
15.26
17.31
14.73
8.05
-1.38
-11.75
-21.20
-28.04
-31.00
-29.41
-23.34
-13.71
-2.24
8.95
17.77
22.96
24.36
22.97
20.52
18.81
18.99
21.23
24.79
28.39
30.83
31.40
30.13
27.51
24.21
20.75
17.35
13.99
10.64
7.31
4.10
1.10
-1.66
-4.21
-6.52
-8.47
-9.91
-10.82
-11.52
-12.55
-14.46
-17.45
-21.18
-24.76
-27.10
-27.31
-25.09
-20.75
-15.11
-9.09
-3.47
1.23
4.73
6.86
7.66
7.46
7.08
7.77
10.76
16.62
24.64
32.73
38.08
38.23
32.20
21.00
7.32
-5.52
-14.65
-18.52
-17.12
-11.66
-4.08
3.43
8.72
10.07
6.46
-2.10
-14.43
-28.48
-41.71
-51.80
-57.04
-56.57
-50.37
-39.14
-24.13
-7.06
10.01
24.88
35.56
40.72
39.96
34.00
24.45
13.54
3.64
-3.12
-5.11
-1.41
7.93
21.85
38.22
54.23
67.08
74.68
76.30
72.55
64.92
55.04
44.15
33.13
22.86
14.59
9.90
10.10
15.38
24.29
33.64
39.02
35.77
20.07
-9.85
-52.60
-103.24
-153.79
-195.04
-219.08
-221.65
-203.37
-169.14
-126.23
-81.86
-41.41
-8.07
16.75
32.59
39.52
38.31
30.80
19.95
9.34
2.20
0.44
4.12
11.60
20.26
27.56
31.88
32.92
31.59
29.52
28.23
28.50
30.15
32.11
33.09
32.31
30.04
27.65
27.01
29.53
35.43
43.44
51.28
56.46
56.77
50.44
36.13
13.29
-16.98
-51.18
-83.47
-107.17
-117.14
-111.82
-94.00
-69.45
-44.40
-23.13
-7.06
4.69
13.51
19.95
23.35
22.59
17.34
8.81
-0.38
-7.19
-9.35
-6.34
0.48
8.53
15.19
18.89
19.60
18.52
17.27
16.90
17.39
17.67
16.28
12.03
4.54
-5.68
-17.38
-28.90
-38.58
-45.18
-48.07
-47.23
-43.08
-36.17
-26.86
-15.25
-1.37
14.37
30.80
45.88
57.32
63.42
63.89
60.15
54.77
50.36
48.35
48.28
48.12
45.22
37.76
25.72
11.00
-3.34
-14.36
-20.43
-21.66
-19.65
-16.67
-14.63
-14.50
-16.24
-19.20
-22.46
-24.98
-25.67
-23.47
-17.70
-8.48
2.95
14.52
23.95
29.58
30.84
28.20
22.68
15.31
6.81
-2.37
-11.78
-20.77
-28.32
-33.32
-34.77
-32.30
-26.52
-19.13
-12.72
-9.79
-11.69
-17.66
-24.94
-29.68
-28.65
-20.49
-6.33
10.93
27.78
41.26
49.57
52.04
48.91
40.92
29.28
15.76
2.76
-6.95
-11.06
-8.72
-1.30
7.69
13.61
12.46
2.90
-13.15
-31.02
-45.27
-51.98
-50.18
-41.62
-29.49
-16.78
-5.33
3.99
10.64
13.96
13.48
9.53
3.80
-0.93
-2.05
1.86
10.10
20.30
29.45
35.15
36.16
32.63
25.66
16.84
7.89
0.34
-4.55
-6.11
-4.56
-0.95
3.18
6.38
7.86
7.62
6.22
4.28
2.13
-0.28
-3.10
-6.31
-9.54
-12.25
-13.95
-14.59
-14.49
-14.20
-14.19
-14.54
-15.14
-15.87
-16.77
-17.97
-19.60
-21.42
-23.07
-23.96
-23.72
-22.37
-20.32
-18.03
-15.71
-13.17
-10.00
-5.89
-0.93
4.29
8.95
12.32
14.02
14.11
12.91
10.90
8.64
6.72
5.67
5.83
7.10
8.90
10.37
10.75
9.76
7.76
5.62
4.29
4.46
6.42
9.88
14.27
18.83
22.88
25.86
27.45
27.47
25.93
22.96
18.80
13.83
8.62
3.75
-0.35
-3.57
-6.11
-8.26
-10.19
-11.91
-13.33
-14.56
-16.08
-18.62
-22.71
-28.25
-34.09
-38.38
-39.18
-35.40
-27.35
-16.73
-5.94
2.84
8.44
10.85
10.98
9.93
8.52
6.95
4.99
2.59
0.08
-1.68
-1.64
0.95
6.11
12.98
20.05
25.66
28.56
28.36
25.54
21.22
16.61
12.64
9.65
7.47
5.68
3.79
1.33
-2.09
-6.72
-12.42
-18.58
-24.06
-27.57
-28.15
-25.61
-20.64
-14.48
-8.33
-2.95
1.40
4.74
7.01
7.97
7.39
5.43
2.82
0.71
0.26
2.14
6.34
12.13
18.33
23.63
27.00
27.82
26.10
22.36
17.48
12.25
6.90
0.91
-6.72
-16.80
-29.17
-42.23
-53.26
-59.30
-58.43
-50.53
-37.40
-21.95
-7.14
5.03
13.85
19.62
23.04
24.65
24.79
23.65
21.57
19.12
17.01
15.93
16.23
17.91
20.55
23.63
26.62
29.11
30.85
31.75
31.69
30.26
26.72
20.00
9.26
-5.48
-22.86
-40.29
-54.74
-63.92
-67.05
-64.95
-59.30
-51.72
-43.12
-33.83
-24.07
-14.59
-6.62
-1.34
0.76
0.22
-1.61
-3.25
-3.71
-2.64
-0.22
3.22
7.43
12.25
17.44
22.64
27.38
31.15
33.62
34.66
34.54
33.76
33.03
32.92
33.67
35.04
36.38
36.79
35.33
31.08
23.16
11.01
-5.33
-24.84
-45.34
-63.92
-77.74
-84.94
-85.05
-78.85
-67.68
-52.98
-36.02
-18.29
-1.67
11.68
19.95
22.50
20.29
15.61
11.04
8.48
8.47
10.19
12.13
12.91
12.03
10.01
8.25
8.27
11.05
16.45
23.15
29.27
33.24
34.40
33.37
31.58
30.45
30.65
31.84
32.86
32.17
28.30
20.15
7.21
-10.17
-30.62
-51.85
-71.02
-85.44
-93.11
-93.14
-85.79
-72.31
-54.71
-35.57
-17.79
-4.05
3.80
5.41
2.08
-3.68
-9.06
-11.91
-11.35
-7.71
-2.21
3.70
8.83
12.45
14.34
14.65
13.88
12.72
12.05
12.71
15.18
19.33
24.35
28.92
31.71
31.88
29.44
25.25
20.67
17.07
15.35
15.71
17.66
20.23
22.21
22.50
20.42
15.82
9.10
1.00
-7.70
-16.34
-24.34
-31.15
-36.11
-38.66
-38.58
-36.24
-32.41
-27.98
-23.36
-18.35
-12.45
-5.39
2.36
9.65
15.15
18.15
18.93
18.62
18.48
19.19
20.58
21.85
22.21
21.43
19.89
18.47
17.99
18.90
21.14
24.11
26.88
28.34
27.49
23.62
16.52
6.65
-5.01
-17.05
-28.01
-36.63
-42.08
-44.09
-43.06
-39.92
-35.95
-32.38
-29.96
-28.77
-28.15
-27.14
-24.80
-20.67
-14.86
-7.99
-1.02
5.12
9.69
12.31
13.02
12.23
10.62
9.01
8.21
8.86
11.27
15.31
20.28
24.99
28.04
28.36
25.67
20.73
15.12
10.59
8.30
8.41
10.03
11.77
12.45
11.67
9.75
7.48
5.40
3.47
1.00
-2.90
-8.67
-15.87
-23.18
-28.93
-31.69
-31.01
-27.41
-22.16
-16.64
-11.85
-8.23
-5.81
-4.52
-4.31
-5.25
-7.23
-9.89
-12.59
-14.60
-15.41
-14.86
-13.21
-10.90
-8.40
-5.98
-3.71
-1.62
0.28
1.88
3.07
3.83
4.24
4.39
4.36
4.10
3.62
3.07
2.86
3.59
5.72
9.31
13.69
17.67
20.00
19.97
17.87
14.97
13.07
13.86
18.28
26.20
36.40
46.96
55.67
60.65
60.85
56.32
48.17
38.08
27.65
17.81
8.60
-0.49
-9.96
-19.76
-29.17
-37.11
-42.75
-45.80
-46.45
-44.83
-40.69
-33.43
-22.57
-8.62
6.57
20.14
29.23
32.24
29.56
23.38
16.58
11.51
9.04
8.53
8.51
7.70
5.53
2.22
-1.61
-5.44
-9.07
-12.51
-15.86
-19.17
-22.53
-26.26
-30.79
-36.44
-43.02
-49.63
-54.94
-57.64
-56.97
-52.82
-45.59
-35.83
-24.03
-10.80
2.84
15.40
25.09
30.45
30.81
26.60
19.03
9.69
0.04
-8.69
-15.49
-19.50
-20.17
-17.47
-12.08
-5.36
1.11
6.08
9.03
10.34
10.98
11.97
13.98
17.11
20.88
24.55
27.29
28.39
27.42
24.29
19.34
13.40
7.69
3.57
2.23
4.29
9.54
16.94
24.78
31.02
33.71
31.36
23.22
9.65
-7.80
-26.54
-43.42
-55.43
-60.56
-58.29
-49.68
-36.88
-22.40
-8.44
3.42
12.17
17.16
18.06
15.04
8.93
1.22
-6.28
-12.06
-15.41
-16.49
-15.98
-14.54
-12.43
-9.48
-5.40
-0.28
5.22
9.89
12.37
11.58
7.16
-0.42
-9.99
-19.86
-28.23
-33.55
-34.77
-31.58
-24.53
-14.88
-4.29
5.54
13.31
18.36
20.66
20.68
19.05
16.39
13.15
9.66
6.15
2.73
-0.54
-3.71
-6.79
-9.65
-11.93
-13.19
-13.19
-12.08
-10.53
-9.50
-9.80
-11.74
-14.89
-18.27
-20.74
-21.44
-20.09
-16.97
-12.74
-8.16
-3.86
-0.36
1.95
2.79
2.01
-0.32
-3.83
-7.82
-11.46
-14.03
-15.18
-15.08
-14.34
-13.68
-13.53
-13.81
-13.87
-12.85
-10.05
-5.25
1.14
8.28
15.20
21.07
25.34
27.77
28.37
27.30
24.88
21.61
18.22
15.47
14.00
14.00
15.17
16.74
17.78
17.60
16.03
13.49
10.78
8.68
7.62
7.49
7.81
7.94
7.40
6.02
3.95
1.58
-0.68
-2.43
-3.37
-3.34
-2.27
-0.32
2.16
4.60
6.34
6.80
5.74
3.32
0.09
-3.23
-6.06
-8.14
-9.55
-10.53
-11.25
-11.63
-11.39
-10.22
-7.97
-4.86
-1.46
1.47
3.21
3.27
1.50
-1.89
-6.38
-11.22
-15.49
-18.28
-18.86
-16.93
-12.73
-7.03
-1.01
4.11
7.32
8.15
6.68
3.61
-0.02
-3.05
-4.54
-4.05
-1.71
1.76
5.35
8.03
9.17
8.72
7.19
5.47
4.42
4.54
5.77
7.53
8.93
9.19
7.93
5.29
1.82
-1.84
-5.23
-8.11
-10.42
-12.05
-12.73
-12.09
-9.88
-6.14
-1.32
3.82
8.42
11.80
13.56
13.58
11.94
8.79
4.44
-0.67
-5.85
-10.24
-12.99
-13.50
-11.65
-7.90
-3.23
1.24
4.59
6.39
6.80
6.41
5.87
5.66
6.03
7.03
8.70
11.13
14.31
18.03
21.69
24.46
25.58
24.70
22.03
18.27
14.24
10.54
7.42
4.87
2.74
1.04
-0.17
-0.78
-0.88
-0.80
-1.18
-2.82
-6.54
-12.86
-21.77
-32.50
-43.69
-53.62
-60.77
-64.20
-63.58
-59.12
-51.22
-40.30
-26.91
-11.96
3.12
16.60
26.82
32.75
34.26
32.08
27.45
21.67
15.87
10.91
7.35
5.63
5.99
8.45
12.72
18.13
23.74
28.47
31.40
32.02
30.35
26.94
22.55
17.88
13.30
8.69
3.64
-2.42
-9.90
-18.83
-28.81
-38.89
-47.75
-53.97
-56.35
-54.37
-48.33
-39.34
-28.97
-18.72
-9.58
-1.85
4.73
10.48
15.37
18.81
19.79
17.46
11.72
3.60
-4.83
-11.08
-13.26
-10.98
-5.62
0.00
2.68
0.05
-8.65
-22.44
-39.21
-56.45
-71.98
-84.19
-92.13
-95.66
-95.81
-94.71
-95.13
-99.17
-106.94
-115.82
-121.02
-117.18
-100.31
-69.10
-25.30
26.79
81.38
132.14
173.02
198.97
206.72
195.54
167.57
127.51
81.62
36.45
-2.41
-30.79
-46.10
-47.50
-36.31
-16.42
6.14
24.73
34.52
34.61
28.52
22.56
22.54
30.76
44.91
59.57
69.35
71.78
68.20
62.42
58.12
56.78
57.31
57.27
54.60
48.73
40.69
32.24
24.86
19.02
14.26
9.80
5.10
0.34
-3.66
-5.96
-5.98
-3.89
-0.64
2.44
4.20
4.10
2.43
0.09
-1.84
-2.69
-2.47
-1.81
-1.61
-2.42
-4.15
-6.10
-7.34
-7.15
-5.39
-2.43
1.13
4.70
7.97
10.79
13.11
14.85
15.84
15.95
15.13
13.48
11.25
8.72
6.09
3.42
0.59
-2.57
-6.18
-10.11
-13.97
-17.23
-19.42
-20.40
-20.40
-19.95
-19.55
-19.52
-19.87
-20.43
-20.99
-21.44
-21.83
-22.26
-22.79
-23.39
-23.94
-24.33
-24.51
-24.47
-24.28
-23.98
-23.62
-23.24
-22.91
-22.68
-22.58
-22.53
-22.30
-21.56
-19.95
-17.24
-13.50
-9.03
-4.36
0.02
3.74
6.68
8.88
10.42
11.29
11.46
10.94
9.91
8.72
7.73
7.24
7.28
7.74
8.43
9.20
10.00
10.81
11.56
12.18
12.58
12.72
12.66
12.51
12.42
12.48
12.72
13.09
13.52
13.95
14.28
14.43
14.27
13.69
12.60
11.00
9.03
6.86
4.70
2.66
0.80
-0.91
-2.45
-3.77
-4.84
-5.68
-6.43
-7.21
-8.08
-8.92
-9.50
-9.60
-9.14
-8.19
-6.90
-5.43
-3.89
-2.34
-0.88
0.34
1.15
1.44
1.25
0.72
0.03
-0.70
-1.46
-2.26
-3.15
-4.11
-5.04
-5.79
-6.21
-6.21
-5.79
-5.09
-4.29
-3.55
-2.99
-2.64
-2.50
-2.52
-2.65
-2.81
-2.92
-2.86
-2.59
-2.18
-1.79
-1.62
-1.80
-2.26
-2.81
-3.24
-3.44
-3.45
-3.45
-3.56
-3.79
-3.96
-3.84
-3.27
-2.26
-1.03
0.14
1.08
1.80
2.40
2.97
3.50
3.90
4.01
3.78
3.28
2.62
1.98
1.42
0.99
0.65
0.41
0.28
0.25
0.26
0.22
0.05
-0.27
-0.70
-1.16
-1.58
-1.89
-2.07
-2.07
-1.92
-1.69
-1.49
-1.45
-1.66
-2.14
-2.84
-3.65
-4.44
-5.19
-5.81
-6.27
-6.49
-6.36
-5.83
-4.94
-3.82
-2.66
-1.60
-0.70
0.07
0.79
1.52
2.26
2.93
3.43
3.68
3.65
3.36
2.89
2.32
1.76
1.33
1.10
1.08
1.21
1.38
1.45
1.28
0.87
0.31
-0.27
-0.76
-1.15
-1.53
-2.04
-2.76
-3.66
-4.63
-5.49
-6.12
-6.58
-7.02
-7.58
-8.27
-8.92
-9.28
-9.16
-8.50
-7.43
-6.15
-4.80
-3.47
-2.18
-0.95
0.16
1.08
1.72
2.10
2.31
2.45
2.63
2.84
3.01
3.04
2.87
2.55
2.20
1.99
2.06
2.43
3.01
3.57
3.90
3.84
3.35
2.50
1.41
0.22
-0.95
-2.01
-2.88
-3.54
-3.98
-4.21
-4.25
-4.13
-3.99
-3.97
-4.24
-4.82
-5.54
-6.11
-6.23
-5.71
-4.58
-3.11
-1.63
-0.42
0.40
0.84
0.99
0.96
0.85
0.78
0.85
1.15
1.69
2.37
3.07
3.66
4.06
4.21
4.12
3.78
3.21
2.46
1.65
0.95
0.48
0.26
0.17
0.01
-0.41
-1.13
-2.08
-3.11
-4.07
-4.90
-5.59
-6.20
-6.69
-7.00
-7.00
-6.55
-5.61
-4.29
-2.87
-1.70
-1.03
-0.86
-0.92
-0.76
-0.01
1.42
3.30
5.14
6.48
7.10
7.12
6.82
6.52
6.32
6.11
5.71
4.97
3.93
2.79
1.85
1.31
1.18
1.28
1.37
1.30
1.04
0.77
0.69
0.89
1.28
1.57
1.45
0.76
-0.44
-1.88
-3.19
-4.06
-4.41
-4.34
-4.05
-3.80
-3.71
-3.81
-4.05
-4.33
-4.60
-4.89
-5.27
-5.82
-6.53
-7.29
-7.89
-8.09
-7.72
-6.77
-5.38
-3.78
-2.18
-0.74
0.53
1.59
2.37
2.70
2.48
1.70
0.58
-0.52
-1.30
-1.66
-1.72
-1.77
-2.07
-2.66
-3.40
-4.08
-4.55
-4.89
-5.24
-5.75
-6.34
-6.74
-6.64
-5.86
-4.51
-2.97
-1.72
-1.15
-1.31
-1.87
-2.26
-1.84
-0.23
2.62
6.41
10.54
14.38
17.38
19.18
19.65
18.83
16.92
14.22
11.18
8.25
5.93
4.50
4.08
4.53
5.51
6.65
7.60
8.20
8.38
8.28
8.00
7.64
7.23
6.72
6.05
5.17
4.18
3.21
2.43
1.93
1.71
1.65
1.62
1.54
1.38
1.19
1.00
0.80
0.53
0.18
-0.24
-0.61
-0.78
-0.71
-0.47
-0.25
-0.26
-0.60
-1.23
-1.97
-2.66
-3.22
-3.69
-4.23
-4.94
-5.84
-6.81
-7.69
-8.37
-8.84
-9.16
-9.37
-9.41
-9.12
-8.32
-6.93
-5.06
-3.01
-1.11
0.37
1.41
2.15
2.81
3.56
4.45
5.37
6.17
6.70
6.87
6.75
6.45
6.16
6.06
6.22
6.58
6.98
7.16
6.97
6.34
5.38
4.27
3.24
2.37
1.68
1.09
0.53
-0.06
-0.63
-1.10
-1.35
-1.31
-1.00
-0.55
-0.21
-0.18
-0.56
-1.26
-2.02
-2.57
-2.74
-2.56
-2.19
-1.76
-1.31
-0.72
0.15
1.39
2.91
4.53
6.10
7.50
8.71
9.71
10.43
10.74
10.53
9.83
8.80
7.72
6.82
6.24
5.92
5.73
5.47
5.07
4.57
4.11
3.84
3.80
3.95
4.08
3.99
3.59
2.89
2.05
1.25
0.63
0.14
-0.30
-0.85
-1.53
-2.29
-2.97
-3.45
-3.70
-3.81
-3.89
-3.92
-3.84
-3.63
-3.47
-3.80
-5.06
-7.50
-10.81
-14.25
-16.90
-18.08
-17.67
-16.12
-14.14
-12.36
-11.03
-10.07
-9.30
-8.62
-8.18
-8.17
-8.71
-9.63
-10.62
-11.34
-11.58
-11.39
-10.96
-10.50
-10.04
-9.41
-8.32
-6.52
-4.01
-1.02
2.03
4.68
6.61
7.73
8.14
8.05
7.66
7.05
6.24
5.16
3.84
2.35
0.87
-0.47
-1.60
-2.54
-3.29
-3.79
-3.92
-3.51
-2.47
-0.92
0.85
2.49
3.66
4.21
4.18
3.70
3.03
2.33
1.76
1.39
1.25
1.28
1.34
1.26
0.88
0.18
-0.69
-1.46
-1.88
-1.88
-1.55
-1.18
-0.97
-0.98
-1.10
-1.13
-0.95
-0.61
-0.31
-0.25
-0.55
-1.16
-1.92
-2.63
-3.23
-3.72
-4.16
-4.63
-5.13
-5.62
-6.04
-6.27
-6.21
-5.75
-4.89
-3.69
-2.31
-0.96
0.18
1.02
1.54
1.79
1.85
1.79
1.71
1.66
1.72
1.95
2.32
2.74
3.08
3.17
2.96
2.46
1.85
1.29
0.95
0.91
1.09
1.29
1.28
0.91
0.16
-0.81
-1.73
-2.32
-2.38
-1.91
-1.10
-0.25
0.36
0.56
0.32
-0.27
-1.12
-2.12
-3.20
-4.25
-5.10
-5.59
-5.60
-5.14
-4.35
-3.44
-2.60
-1.89
-1.29
-0.69
-0.03
0.67
1.31
1.74
1.91
1.85
1.71
1.72
2.00
2.56
3.27
3.93
4.38
4.54
4.42
4.15
3.85
3.60
3.44
3.35
3.23
2.96
2.41
1.52
0.33
-0.96
-2.12
-2.94
-3.34
-3.35
-3.12
-2.81
-2.57
-2.54
-2.86
-3.61
-4.74
-6.06
-7.22
-7.85
-7.75
-6.92
-5.60
-4.10
-2.71
-1.57
-0.74
-0.21
-0.07
-0.39
-1.21
-2.38
-3.56
-4.33
-4.33
-3.47
-1.94
-0.11
1.67
3.23
4.58
5.86
7.14
8.35
9.26
9.71
9.65
9.24
8.71
8.21
7.69
6.93
5.72
4.01
2.01
0.11
-1.31
-2.11
-2.41
-2.51
-2.74
-3.23
-3.93
-4.64
-5.16
-5.38
-5.32
-4.98
-4.38
-3.48
-2.26
-0.80
0.73
2.11
3.13
3.63
3.56
2.98
2.03
0.96
0.00
-0.65
-0.90
-0.77
-0.37
0.15
0.65
1.02
1.27
1.43
1.57
1.76
1.96
2.08
2.03
1.73
1.23
0.66
0.23
0.08
0.20
0.48
0.68
0.59
0.07
-0.87
-2.12
-3.46
-4.63
-5.43
-5.74
-5.57
-4.96
-4.03
-2.85
-1.52
-0.21
0.95
1.78
2.21
2.27
2.08
1.81
1.56
1.40
1.30
1.21
1.10
0.95
0.76
0.57
0.43
0.37
0.41
0.46
0.45
0.27
-0.09
-0.58
-1.06
-1.42
-1.62
-1.72
-1.81
-1.96
-2.12
-2.19
-2.12
-1.97
-1.94
-2.29
-3.16
-4.45
-5.78
-6.61
-6.53
-5.35
-3.32
-0.92
1.30
2.98
4.02
4.56
4.83
4.98
5.04
4.93
4.56
3.91
3.08
2.25
1.63
1.33
1.34
1.59
1.96
2.33
2.66
2.90
3.05
3.07
2.94
2.66
2.25
1.77
1.24
0.66
0.02
-0.68
-1.37
-1.96
-2.35
-2.53
-2.60
-2.68
-2.86
-3.17
-3.49
-3.63
-3.44
-2.90
-2.04
-1.00
0.04
0.92
1.53
1.83
1.85
1.67
1.40
1.19
1.13
1.23
1.39
1.47
1.33
0.94
0.42
-0.11
-0.48
-0.69
-0.78
-0.80
-0.76
-0.59
-0.24
0.27
0.81
1.17
1.16
0.66
-0.26
-1.44
-2.70
-3.85
-4.82
-5.60
-6.21
-6.67
-6.97
-7.00
-6.66
-5.89
-4.74
-3.43
-2.26
-1.49
-1.18
-1.21
-1.32
-1.30
-1.04
-0.59
-0.10
0.23
0.30
0.03
-0.55
-1.35
-2.19
-2.82
-2.92
-2.28
-0.81
1.25
3.48
5.40
6.65
7.11
6.92
6.37
5.76
5.23
4.79
4.31
3.66
2.77
1.65
0.38
-0.91
-2.03
-2.79
-2.98
-2.52
-1.45
-0.01
1.47
2.61
3.17
3.13
2.71
2.21
1.89
1.85
1.96
2.05
1.96
1.64
1.17
0.67
0.28
0.12
0.24
0.68
1.36
2.09
2.61
2.72
2.31
1.49
0.47
-0.55
-1.47
-2.33
-3.18
-3.98
-4.52
-4.65
-4.32
-3.76
-3.39
-3.52
-4.22
-5.22
-6.04
-6.24
-5.63
-4.32
-2.64
-0.95
0.53
1.73
2.64
3.33
3.77
3.93
3.76
3.27
2.54
1.70
0.92
0.35
0.12
0.31
0.93
1.87
2.94
3.84
4.36
4.37
3.95
3.31
2.67
2.20
1.88
1.60
1.20
0.58
-0.28
-1.32
-2.51
-3.82
-5.21
-6.59
-7.81
-8.65
-8.93
-8.55
-7.48
-5.76
-3.56
-1.17
1.10
2.93
4.11
4.60
4.53
4.15
3.74
3.48
3.46
3.68
4.11
4.68
5.30
5.80
5.99
5.73
4.97
3.86
2.68
1.75
1.25
1.17
1.34
1.50
1.43
1.07
0.49
-0.13
-0.63
-0.96
-1.15
-1.35
-1.72
-2.39
-3.42
-4.71
-6.09
-7.33
-8.17
-8.45
-8.12
-7.30
-6.17
-4.94
-3.73
-2.55
-1.32
0.00
1.41
2.78
3.91
4.66
4.98
4.97
4.83
4.76
4.84
5.06
5.30
5.43
5.45
5.41
5.47
5.74
6.21
6.72
7.01
6.86
6.24
5.33
4.44
3.84
3.56
3.38
3.03
2.31
1.33
0.38
-0.18
-0.23
0.06
0.31
0.12
-0.63
-1.79
-2.99
-3.92
-4.53
-5.03
-5.67
-6.55
-7.47
-7.95
-7.61
-6.33
-4.39
-2.34
-0.70
0.32
0.89
1.32
1.91
2.63
3.27
3.56
3.42
3.05
2.86
3.20
4.14
5.43
6.60
7.19
7.01
6.20
5.18
4.38
4.09
4.26
4.63
4.81
4.58
3.90
2.98
2.08
1.35
0.78
0.24
-0.33
-0.90
-1.32
-1.44
-1.23
-0.85
-0.61
-0.79
-1.55
-2.81
-4.25
-5.50
-6.29
-6.56
-6.51
-6.44
-6.61
-7.07
-7.63
-8.01
-7.93
-7.29
-6.18
-4.77
-3.25
-1.77
-0.44
0.62
1.33
1.65
1.67
1.50
1.35
1.37
1.65
2.21
3.00
3.89
4.72
5.32
5.59
5.57
5.45
5.46
5.74
6.23
6.66
6.73
6.25
5.28
4.09
3.00
2.26
1.95
2.01
2.29
2.68
3.06
3.39
3.53
3.39
2.83
1.89
0.69
-0.49
-1.39
-1.87
-1.96
-1.90
-1.96
-2.34
-3.12
-4.22
-5.40
-6.42
-7.04
-7.08
-6.48
-5.31
-3.78
-2.16
-0.76
0.24
0.81
1.12
1.40
1.86
2.60
3.55
4.53
5.30
5.69
5.61
5.07
4.21
3.17
2.15
1.35
0.94
1.08
1.72
2.70
3.78
4.70
5.29
5.49
5.35
4.95
4.38
3.71
2.98
2.26
1.59
1.05
0.59
0.15
-0.33
-0.87
-1.45
-2.06
-2.65
-3.28
-3.93
-4.57
-5.17
-5.76
-6.37
-7.04
-7.82
-8.68
-9.52
-10.22
-10.65
-10.75
-10.49
-9.84
-8.78
-7.27
-5.27
-2.86
-0.16
2.59
5.19
7.45
9.29
10.66
11.55
11.94
11.81
11.13
9.97
8.47
6.88
5.44
4.37
3.77
3.64
3.83
4.16
4.45
4.58
4.55
4.46
4.36
4.23
3.94
3.30
2.21
0.82
-0.55
-1.53
-1.94
-1.84
-1.52
-1.35
-1.57
-2.17
-3.00
-3.90
-4.74
-5.52
-6.28
-6.96
-7.45
-7.62
-7.43
-6.99
-6.51
-6.11
-5.74
-5.22
-4.27
-2.81
-0.99
0.81
2.17
2.86
2.92
2.62
2.31
2.21
2.37
2.73
3.21
3.70
4.11
4.32
4.22
3.77
3.10
2.44
2.12
2.28
2.85
3.55
4.03
4.05
3.62
2.91
2.14
1.44
0.80
0.14
-0.61
-1.43
-2.26
-3.05
-3.77
-4.45
-5.10
-5.68
-6.10
-6.27
-6.22
-6.05
-5.96
-6.05
-6.28
-6.45
-6.28
-5.59
-4.37
-2.81
-1.24
0.01
0.75
0.95
0.78
0.49
0.37
0.57
1.00
1.47
1.74
1.66
1.26
0.77
0.55
0.84
1.72
2.95
4.14
4.92
5.14
4.87
4.32
3.64
2.85
1.92
0.82
-0.30
-1.18
-1.57
-1.42
-0.95
-0.50
-0.44
-0.88
-1.77
-2.91
-4.18
-5.50
-6.84
-8.15
-9.20
-9.66
-9.17
-7.62
-5.23
-2.55
-0.30
0.90
0.91
0.15
-0.57
-0.41
0.97
3.21
5.49
6.92
7.04
6.01
4.50
3.19
2.45
2.25
2.33
2.52
2.79
3.31
4.11
5.03
5.72
5.79
5.13
3.90
2.51
1.25
0.32
-0.34
-0.86
-1.39
-1.93
-2.49
-3.06
-3.71
-4.60
-5.86
-7.60
-9.78
-12.04
-13.79
-14.37
-13.29
-10.49
-6.46
-2.04
1.73
4.06
4.66
3.75
2.05
0.40
-0.57
-0.63
0.01
0.89
1.67
2.19
2.47
2.52
2.29
1.79
1.26
1.27
2.37
4.74
7.74
10.13
10.61
8.51
4.26
-0.73
-4.75
-6.54
-5.70
-2.79
1.02
4.47
6.53
6.58
4.67
1.19
-3.17
-7.64
-11.39
-13.77
-14.32
-12.95
-9.98
-6.21
-2.61
0.03
1.43
1.75
1.45
0.92
0.36
-0.17
-0.65
-0.93
-0.83
-0.41
0.05
0.12
-0.34
-1.01
-1.22
-0.30
1.92
4.95
7.75
9.32
9.09
7.12
4.11
0.88
-1.72
-3.15
-3.26
-2.41
-1.28
-0.81
-1.63
-3.80
-6.64
-9.07
-10.10
-9.51
-7.86
-6.08
-4.91
-4.31
-3.56
-1.84
1.23
5.15
8.91
11.39
12.04
11.01
9.03
6.99
5.38
4.38
3.81
3.41
3.00
2.56
2.14
1.76
1.38
0.92
0.44
-0.01
-0.27
-0.27
-0.07
0.18
0.29
0.16
-0.22
-0.74
-1.39
-2.23
-3.30
-4.60
-6.02
-7.33
-8.26
-8.67
-8.50
-7.93
-7.18
-6.39
-5.69
-5.09
-4.62
-4.39
-4.56
-5.25
-6.39
-7.71
-8.72
-8.93
-7.97
-5.69
-2.17
2.19
6.83
10.97
13.89
15.15
14.74
13.25
11.46
10.09
9.45
9.35
9.32
8.91
7.82
5.92
3.23
-0.19
-4.00
-7.59
-10.22
-11.17
-10.23
-7.79
-4.68
-1.81
0.29
1.54
2.22
2.68
3.07
3.34
3.32
2.93
2.22
1.34
0.47
-0.22
-0.69
-0.94
-1.06
-1.07
-0.97
-0.68
-0.10
0.83
2.01
3.17
3.97
4.11
3.55
2.43
1.05
-0.37
-1.76
-3.18
-4.71
-6.27
-7.60
-8.36
-8.28
-7.33
-5.73
-3.89
-2.23
-1.01
-0.29
0.06
0.21
0.34
0.56
0.93
1.43
2.04
2.67
3.22
3.53
3.50
3.14
2.57
2.00
1.62
1.50
1.59
1.74
1.82
1.76
1.56
1.31
1.04
0.78
0.51
0.19
-0.22
-0.77
-1.50
-2.48
-3.74
-5.25
-6.87
-8.32
-9.26
-9.40
-8.57
-6.84
-4.49
-1.90
0.58
2.66
4.21
5.18
5.60
5.53
5.14
4.65
4.36
4.46
5.04
5.93
6.85
7.49
7.68
7.38
6.70
5.85
5.07
4.52
4.32
4.42
4.67
4.86
4.84
4.53
3.96
3.19
2.30
1.34
0.35
-0.60
-1.40
-1.97
-2.36
-2.70
-3.20
-4.00
-5.06
-6.24
-7.36
-8.36
-9.24
-10.03
-10.67
-11.00
-10.82
-9.99
-8.55
-6.65
-4.48
-2.20
0.05
2.12
3.83
5.01
5.59
5.66
5.47
5.29
5.32
5.55
5.85
6.06
6.10
6.03
5.98
6.06
6.26
6.48
6.55
6.38
5.94
5.29
4.60
4.03
3.69
3.62
3.72
3.83
3.73
3.30
2.46
1.35
0.19
-0.78
-1.43
-1.83
-2.16
-2.64
-3.37
-4.33
-5.41
-6.54
-7.76
-9.12
-10.53
-11.68
-12.14
-11.55
-9.88
-7.46
-4.87
-2.61
-0.90
0.33
1.32
2.20
2.96
3.49
3.72
3.76
3.79
4.02
4.46
4.95
5.30
5.36
5.16
4.85
4.63
4.62
4.82
5.12
5.38
5.51
5.53
5.50
5.47
5.43
5.22
4.66
3.68
2.39
1.08
0.09
-0.38
-0.38
-0.19
-0.10
-0.29
-0.76
-1.42
-2.16
-2.97
-3.87
-4.91
-6.07
-7.17
-8.02
-8.42
-8.29
-7.61
-6.49
-5.06
-3.47
-1.89
-0.43
0.80
1.77
2.49
3.05
3.54
4.03
4.51
4.90
5.13
5.17
5.10
5.06
5.14
5.33
5.56
5.71
5.71
5.60
5.48
5.44
5.49
5.57
5.62
5.66
5.73
5.87
6.08
6.25
6.30
6.12
5.65
4.90
3.91
2.76
1.58
0.49
-0.49
-1.40
-2.38
-3.55
-4.96
-6.50
-7.94
-9.03
-9.57
-9.52
-8.91
-7.90
-6.64
-5.25
-3.85
-2.51
-1.25
-0.05
1.15
2.38
3.56
4.55
5.17
5.30
4.95
4.26
3.47
2.81
2.44
2.35
2.48
2.70
2.94
3.20
3.53
3.99
4.56
5.11
5.48
5.51
5.17
4.54
3.81
3.19
2.83
2.69
2.67
2.52
2.08
1.27
0.18
-0.98
-2.00
-2.78
-3.39
-3.97
-4.69
-5.58
-6.48
-7.13
-7.25
-6.72
-5.68
-4.39
-3.14
-2.09
-1.27
-0.54
0.25
1.16
2.12
2.96
3.50
3.60
3.27
2.63
1.87
1.15
0.58
0.21
0.05
0.13
0.43
0.93
1.50
2.00
2.27
2.26
2.04
1.75
1.51
1.37
1.26
1.07
0.74
0.31
-0.13
-0.51
-0.84
-1.23
-1.83
-2.69
-3.80
-4.94
-5.88
-6.40
-6.42
-6.05
-5.49
-4.95
-4.52
-4.15
-3.68
-2.97
-2.03
-0.97
0.01
0.74
1.17
1.37
1.47
1.56
1.66
1.69
1.60
1.36
1.05
0.77
0.62
0.64
0.79
1.02
1.26
1.54
1.84
2.16
2.48
2.70
2.74
2.50
1.96
1.17
0.28
-0.59
-1.30
-1.84
-2.29
-2.77
-3.40
-4.14
-4.84
-5.31
-5.40
-5.17
-4.78
-4.44
-4.27
-4.17
-3.91
-3.24
-2.02
-0.39
1.33
2.70
3.40
3.32
2.65
1.67
0.76
0.16
-0.02
0.20
0.73
1.47
2.28
2.98
3.33
3.20
2.57
1.66
0.83
0.37
0.37
0.65
0.90
0.86
0.47
-0.08
-0.55
-0.73
-0.60
-0.31
-0.10
-0.17
-0.63
-1.47
-2.50
-3.50
-4.23
-4.51
-4.36
-3.91
-3.34
-2.76
-2.09
-1.19
0.03
1.48
2.86
3.87
4.28
4.12
3.59
2.98
2.49
2.20
2.10
2.12
2.22
2.31
2.28
2.08
1.72
1.32
1.05
1.05
1.33
1.80
2.37
2.95
3.56
4.20
4.81
5.24
5.35
5.10
4.61
4.03
3.47
2.90
2.18
1.18
-0.11
-1.53
-2.86
-3.93
-4.66
-5.06
-5.18
-5.05
-4.70
-4.17
-3.59
-3.03
-2.57
-2.18
-1.89
-1.77
-1.92
-2.44
-3.30
-4.27
-5.01
-5.24
-4.80
-3.86
-2.78
-2.01
-1.87
-2.39
-3.36
-4.35
-4.99
-5.04
-4.55
-3.75
-2.94
-2.34
-2.05
-2.05
-2.31
-2.84
-3.60
-4.50
-5.32
-5.76
-5.58
-4.73
-3.43
-2.03
-0.87
-0.09
0.40
0.79
1.21
1.60
1.79
1.64
1.16
0.54
0.07
-0.09
0.03
0.23
0.22
-0.10
-0.67
-1.26
-1.61
-1.56
-1.13
-0.46
0.29
0.92
1.33
1.46
1.33
1.02
0.62
0.25
-0.08
-0.34
-0.57
-0.84
-1.18
-1.68
-2.36
-3.21
-4.15
-5.02
-5.59
-5.68
-5.18
-4.17
-2.86
-1.53
-0.43
0.33
0.75
0.95
1.02
1.08
1.15
1.20
1.19
1.03
0.71
0.27
-0.20
-0.54
-0.58
-0.25
0.38
1.10
1.62
1.75
1.45
0.89
0.33
-0.02
-0.13
-0.16
-0.32
-0.79
-1.55
-2.42
-3.16
-3.61
-3.79
-3.88
-4.08
-4.53
-5.20
-5.82
-6.11
-5.81
-4.84
-3.34
-1.54
0.24
1.76
2.81
3.27
3.07
2.22
0.83
-0.82
-2.29
-3.10
-2.89
-1.52
0.78
3.56
6.24
8.34
9.56
9.85
9.35
8.26
6.81
5.17
3.55
2.15
1.16
0.70
0.69
0.85
0.79
0.19
-1.05
-2.76
-4.58
-6.10
-7.07
-7.44
-7.39
-7.21
-7.16
-7.33
-7.61
-7.75
-7.53
-6.81
-5.70
-4.38
-3.12
-2.06
-1.24
-0.58
0.01
0.54
0.94
1.09
0.97
0.60
0.14
-0.25
-0.46
-0.44
-0.24
0.05
0.36
0.67
0.95
1.23
1.51
1.74
1.88
1.90
1.80
1.60
1.36
1.12
0.88
0.61
0.27
-0.17
-0.68
-1.21
-1.70
-2.03
-2.12
-2.01
-1.81
-1.72
-1.95
-2.56
-3.44
-4.30
-4.72
-4.39
-3.21
-1.37
0.75
2.72
4.29
5.39
6.06
6.33
6.16
5.50
4.44
3.20
2.15
1.60
1.63
2.05
2.55
2.84
2.84
2.70
2.63
2.74
2.97
3.15
3.14
2.96
2.71
2.54
2.52
2.54
2.43
2.05
1.36
0.44
-0.59
-1.68
-2.85
-4.08
-5.34
-6.47
-7.22
-7.42
-7.02
-6.13
-4.98
-3.76
-2.57
-1.43
-0.31
0.76
1.72
2.45
2.89
3.05
3.00
2.86
2.73
2.63
2.53
2.36
2.08
1.66
1.17
0.68
0.26
-0.02
-0.19
-0.27
-0.32
-0.34
-0.38
-0.48
-0.68
-1.02
-1.44
-1.81
-2.01
-2.01
-1.89
-1.82
-1.94
-2.33
-2.95
-3.74
-4.71
-5.82
-7.08
-8.36
-9.43
-10.09
-10.23
-9.92
-9.33
-8.65
-8.00
-7.37
-6.74
-6.06
-5.43
-5.05
-5.12
-5.74
-6.81
-8.02
-8.97
-9.32
-8.90
-7.76
-6.11
-4.15
-2.02
0.20
2.46
4.62
6.51
8.03
9.25
10.44
11.94
13.97
16.42
18.90
20.83
21.74
21.45
20.09
18.03
15.62
13.09
10.51
7.88
5.29
2.90
0.98
-0.24
-0.71
-0.61
-0.24
0.05
0.06
-0.25
-0.72
-1.12
-1.24
-0.97
-0.35
0.46
1.30
2.04
2.64
3.12
3.51
3.78
3.83
3.60
3.09
2.44
1.86
1.56
1.63
1.96
2.34
2.50
2.32
1.82
1.17
0.60
0.23
0.10
0.10
0.12
-0.01
-0.39
-1.06
-2.01
-3.17
-4.42
-5.58
-6.46
-6.86
-6.69
-5.95
-4.73
-3.26
-1.77
-0.52
0.31
0.67
0.67
0.46
0.22
0.05
-0.10
-0.34
-0.74
-1.26
-1.76
-1.99
-1.79
-1.19
-0.32
0.52
1.14
1.45
1.51
1.50
1.53
1.58
1.56
1.31
0.81
0.16
-0.44
-0.78
-0.72
-0.34
0.17
0.55
0.58
0.18
-0.55
-1.42
-2.16
-2.57
-2.57
-2.21
-1.64
-1.03
-0.48
0.03
0.62
1.45
2.56
3.88
5.23
6.37
7.09
7.30
7.11
6.75
6.58
6.89
7.85
9.41
11.29
13.05
14.34
15.11
15.59
16.22
17.44
19.46
22.11
24.78
26.68
27.28
26.62
25.38
24.56
25.09
27.49
31.51
36.25
40.53
43.43
44.75
45.02
45.23
46.52
50.09
56.67
66.14
76.99
86.25
89.99
84.41
67.16
37.57
-1.42
-43.85
-82.56
-111.84
-129.33
-136.03
-134.75
-128.20
-118.22
-105.75
-91.73
-77.57
-64.87
-54.90
-47.97
-43.45
-40.03
-36.46
-31.92
-26.35
-20.43
-15.14
-11.29
-9.10
-8.18
-7.73
-6.98
-5.41
-3.03
-0.25
2.29
4.07
4.91
5.00
4.78
4.69
5.02
5.78
6.79
7.74
8.37
8.59
8.47
8.20
7.98
7.93
8.09
8.38
8.71
8.98
9.16
9.25
9.30
9.36
9.46
9.63
9.87
10.17
10.54
10.97
11.46
12.01
12.62
13.25
13.92
14.65
15.43
16.28
17.18
18.15
19.19
20.31
21.48
22.66
23.73
24.57
25.04
25.00
24.28
22.75
20.39
17.21
13.35
8.97
4.30
-0.42
-4.94
-9.12
-12.84
-16.03
-18.77
-21.12
-23.19
-25.06
-26.77
-28.30
-29.60
-30.52
-30.85
-30.44
-29.10
-26.65
-22.92
-17.85
-11.39
-3.64
5.25
15.02
25.16
35.14
44.47
52.71
59.53
64.77
68.47
70.87
72.43
73.35
74.04
74.91
76.34
78.56
81.70
85.73
90.54
96.04
101.60
106.81
111.45
115.46
118.92
122.10
125.37
129.19
134.11
139.85
146.32
153.35
160.61
167.60
173.49
177.08
176.42
174.27
170.84
166.07
159.78
151.87
142.35
131.44
119.48
106.95
94.49
81.89
69.22
56.55
44.00
31.73
19.97
8.97
-0.95
-9.49
-17.02
-23.85
-30.22
-36.24
-41.81
-46.66
-50.37
-52.61
-53.30
-53.07
-52.79
-53.36
-55.51
-59.52
-65.19
-71.96
-79.24
-86.72
-94.74
-104.01
-115.35
-129.27
-145.67
-163.81
-182.64
-201.13
-218.69
-235.43
-251.88
-268.85
-287.27
-308.09
-331.91
-358.44
-385.88
-410.67
-428.17
-434.04
-425.90
-404.06
-371.34
-331.64
-288.30
-243.23
-197.23
-150.94
-105.87
-64.59
-29.82
-3.20
15.48
28.25
37.92
46.83
56.12
65.84
75.35
84.28
92.95
102.41
114.14
129.70
150.49
177.37
210.07
246.36
281.81
310.30
325.69
324.06
305.35
273.56
235.17
196.56
161.74
131.52
104.26
77.58
49.91
20.98
-8.62
-38.48
-69.00
-101.44
-137.25
-177.60
-222.90
-272.96
-327.02
-383.79
-441.00
-494.95
-540.59
-572.22
-585.07
-576.79
-548.40
-504.02
-449.58
-391.13
-333.45
-279.46
-230.39
-186.18
-145.97
-108.31
-71.51
-33.95
5.32
46.34
88.29
130.08
171.06
211.24
251.03
290.63
329.47
366.14
398.72
425.36
444.70
455.92
458.50
452.04
436.14
410.55
375.39
331.20
278.88
219.46
154.17
85.07
15.73
-48.44
-100.77
-135.09
-147.71
-139.07
-113.67
-78.61
-40.93
-5.14
28.01
60.79
96.28
135.63
176.33
212.51
237.06
244.47
233.33
206.77
171.04
132.93
96.95
63.95
31.49
-4.05
-44.62
-88.44
-129.63
-159.89
-171.55
-160.47
-127.33
-76.77
-14.93
52.83
122.81
191.91
256.01
309.26
345.13
359.03
350.61
324.37
287.92
249.06
213.15
182.03
154.88
129.56
104.36
78.73
53.42
29.97
10.09
-5.05
-15.42
-22.28
-27.83
-34.57
-44.46
-58.39
-76.22
-97.18
-120.42
-145.54
-172.68
-202.41
-235.61
-273.54
-317.65
-369.08
-427.31
-488.90
-547.07
-592.92
-618.15
-618.21
-594.01
-551.40
-498.64
-443.37
-390.69
-343.07
-301.47
-266.53
-238.77
-217.89
-202.00
-187.72
-171.38
-150.66
-125.66
-98.67
-73.09
-52.04
-37.20
-28.50
-24.33
-22.12
-19.06
-12.83
-2.09
13.16
31.95
52.70
74.04
95.37
117.03
140.22
166.61
197.94
235.31
278.43
324.77
369.39
405.89
428.29
433.35
421.91
398.65
370.16
342.28
318.36
298.62
281.36
264.32
245.98
225.83
204.33
182.95
164.02
150.06
142.44
140.19
140.00
137.83
131.08
119.91
106.88
94.68
83.79
71.65
53.90
26.79
-10.87
-57.49
-109.55
-162.71
-212.26
-252.82
-278.40
-283.33
-264.38
-222.80
-164.71
-99.85
-38.77
9.82
41.12
54.70
53.56
42.60
27.05
11.42
-0.96
-7.77
-7.60
0.08
14.62
33.86
54.55
73.44
88.68
100.79
112.42
126.80
145.74
167.94
188.90
202.37
202.79
187.50
157.52
116.64
69.50
19.97
-29.55
-77.39
-121.62
-159.36
-187.26
-202.79
-205.49
-197.45
-182.64
-165.64
-150.31
-139.04
-132.50
-129.79
-128.82
-126.86
-121.17
-109.71
-91.75
-68.11
-40.91
-13.06
12.42
33.08
47.62
56.11
59.79
60.57
60.11
59.16
57.26
53.01
44.80
31.48
12.75
-10.71
-37.44
-65.35
-92.08
-115.47
-134.34
-149.15
-162.01
-175.84
-192.56
-211.50
-228.77
-238.34
-234.44
-214.11
-178.64
-132.91
-83.47
-35.90
6.86
44.63
79.11
112.64
147.38
185.00
226.42
271.24
316.97
358.81
390.46
406.01
402.05
378.85
340.17
291.57
238.31
183.88
129.81
76.59
24.97
-23.32
-65.68
-99.39
-122.74
-135.49
-138.93
-135.37
-127.36
-116.98
-105.71
-94.45
-83.78
-74.24
-66.28
-60.18
-55.83
-52.77
-50.32
-47.86
-45.04
-41.89
-38.74
-36.03
-34.18
-33.37
-33.63
-34.73
-36.26
-37.68
-38.36
-37.76
-35.52
-31.67
-26.49
-20.37
-13.65
-6.38
1.57
10.36
20.01
30.28
40.77
51.09
61.10
70.85
80.49
90.04
99.28
107.71
114.66
119.48
121.58
120.63
116.59
109.80
101.03
91.35
81.95
73.88
67.80
63.81
61.45
59.73
57.32
52.71
44.59
32.29
16.04
-2.94
-22.79
-41.65
-58.24
-72.18
-83.81
-93.71
-102.26
-109.47
-115.30
-120.10
-124.87
-131.08
-140.14
-152.68
-168.19
-185.05
-201.02
-213.90
-222.00
-224.39
-220.99
-212.51
-200.29
-186.25
-172.54
-161.07
-152.99
-148.33
-146.11
-144.79
-143.24
-141.28
-139.75
-139.77
-141.59
-143.75
-143.11
-135.90
-119.40
-93.28
-59.97
-23.69
11.17
41.64
67.09
88.91
109.58
131.71
157.49
188.45
225.21
266.80
310.05
349.46
378.09
389.48
379.85
349.64
303.60
249.02
193.15
141.01
94.62
54.01
19.18
-8.38
-25.78
-30.29
-21.56
-2.90
19.17
37.37
46.64
46.32
40.24
34.78
36.09
47.94
70.94
103.01
140.36
178.34
212.05
236.79
248.61
245.11
226.13
193.78
151.66
103.94
54.39
6.04
-38.68
-78.03
-110.90
-136.85
-156.30
-170.67
-181.78
-191.17
-199.57
-206.50
-211.20
-212.91
-211.18
-205.91
-197.67
-187.40
-175.97
-163.65
-149.48
-132.24
-110.59
-83.70
-51.72
-16.04
21.53
59.77
98.28
137.26
174.94
207.33
228.82
234.71
223.21
197.03
162.90
125.40
93.77
75.56
71.11
73.45
75.82
73.54
63.43
43.56
12.83
-28.49
-79.96
-134.00
-180.66
-212.36
-228.41
-233.06
-231.25
-226.80
-221.85
-218.09
-215.64
-213.06
-206.53
-191.45
-164.50
-125.89
-80.44
-35.67
0.83
24.97
36.29
37.66
33.03
25.87
18.53
12.39
8.77
9.00
14.42
23.81
35.60
47.21
56.74
63.64
68.83
74.34
82.69
96.64
116.66
141.13
165.67
184.06
189.92
179.32
152.81
113.29
72.00
38.90
19.59
13.47
15.67
20.01
22.28
21.35
18.09
13.94
7.90
-1.61
-15.98
-35.48
-59.02
-84.57
-109.97
-134.27
-158.01
-184.50
-216.03
-252.04
-288.06
-316.67
-330.26
-324.27
-299.47
-255.07
-199.04
-140.83
-87.55
-41.84
-2.30
34.17
70.37
107.87
147.84
190.30
235.71
283.11
328.19
362.61
375.92
359.66
312.01
240.18
158.29
84.07
32.85
12.99
23.93
57.58
101.60
143.08
171.41
179.50
165.12
130.91
83.86
33.80
-8.84
-35.36
-41.42
-28.61
-4.63
18.56
29.18
20.10
-8.02
-46.71
-83.05
-104.98
-106.73
-91.43
-70.26
-55.83
-55.20
-66.21
-79.45
-83.89
-72.96
-47.34
-13.46
19.81
47.67
71.64
96.93
126.39
156.51
178.16
181.47
160.81
115.29
49.98
-25.99
-102.62
-172.05
-229.40
-271.87
-298.12
-296.81
-264.09
-209.40
-151.05
-103.92
-72.68
-54.42
-44.25
-38.71
-36.27
-38.26
-45.10
-54.66
-63.04
-67.33
-67.30
-64.84
-62.56
-62.18
-65.65
-73.23
-83.02
-91.81
-97.05
-98.02
-95.60
-91.78
-87.22
-83.22
-80.41
-78.29
-75.71
-71.84
-66.97
-62.27
-58.83
-57.43
-59.06
-64.01
-71.82
-81.48
-91.98
-102.88
-114.22
-125.78
-137.28
-148.66
-159.57
-169.30
-176.86
-181.00
-180.19
-176.23
-169.61
-160.63
-149.62
-137.00
-123.26
-108.97
-94.74
-81.19
-68.93
-57.89
-48.01
-39.07
-30.82
-22.93
-15.08
-7.07
1.17
9.44
17.79
25.89
33.31
39.56
44.15
46.68
46.90
44.71
40.13
33.61
25.61
16.64
7.28
-1.89
-10.37
-17.73
-23.68
-28.10
-30.92
-32.23
-32.21
-31.12
-29.15
-26.47
-23.18
-19.38
-15.15
-10.60
-5.89
-1.18
3.43
7.94
12.56
17.56
23.18
29.59
36.77
44.52
52.57
60.70
68.93
77.46
86.65
96.75
107.76
119.28
130.62
140.97
149.79
157.00
163.02
168.67
174.75
181.75
189.58
197.79
205.74
213.05
219.86
226.77
234.76
244.97
258.56
276.48
298.95
324.98
351.83
375.38
391.06
395.48
387.59
369.11
343.67
315.17
286.48
258.80
232.15
206.29
181.41
158.17
137.29
118.98
102.83
88.10
74.15
60.77
48.16
36.81
27.23
19.78
14.55
11.25
9.23
7.49
5.07
1.34
-3.74
-9.63
-15.48
-20.54
-24.42
-27.21
-29.34
-31.27
-33.28
-35.26
-36.80
-37.34
-36.42
-33.95
-30.31
-26.28
-22.71
-20.26
-19.14
-19.22
-20.14
-21.61
-23.54
-25.97
-28.88
-32.02
-34.96
-37.19
-38.45
-38.81
-38.63
-38.37
-38.35
-38.65
-39.08
-39.31
-39.04
-38.03
-36.24
-33.70
-30.57
-27.02
-23.24
-19.33
-15.38
-11.35
-7.24
-3.16
0.58
3.51
5.19
5.39
4.27
2.35
0.33
-1.16
-1.78
-1.53
-0.62
0.63
1.97
3.22
4.19
4.70
4.56
3.75
2.47
1.11
0.08
-0.44
-0.66
-1.13
-2.50
-5.25
-9.46
-14.69
-20.18
-25.14
-29.01
-31.71
-33.55
-35.03
-36.54
-38.21
-39.81
-41.01
-41.60
-41.59
-41.21
-40.73
-40.20
-39.45
-38.23
-36.46
-34.36
-32.43
-31.22
-31.12
-32.20
-34.25
-36.93
-40.02
-43.31
-46.66
-49.89
-52.82
-55.27
-57.26
-58.97
-60.69
-62.64
-64.77
-66.81
-68.28
-68.70
-67.80
-65.54
-62.14
-57.93
-53.26
-48.45
-43.75
-39.42
-35.72
-32.87
-30.99
-30.03
-29.77
-29.83
-29.78
-29.28
-28.08
-26.18
-23.77
-21.27
-19.16
-17.78
-17.17
-16.95
-16.43
-14.90
-11.93
-7.60
-2.42
2.88
7.70
11.76
15.09
17.93
20.53
22.95
25.15
26.99
28.32
29.04
29.09
28.48
27.30
25.78
24.22
23.02
22.51
22.89
24.18
26.26
28.92
31.94
35.06
37.97
40.28
41.54
41.41
39.75
36.64
32.37
27.24
21.47
15.09
8.02
0.19
-8.38
-17.43
-26.49
-34.76
-41.21
-44.70
-44.32
-39.76
-31.51
-20.84
-9.41
1.21
9.97
16.52
21.03
23.98
25.85
26.96
27.48
27.46
26.85
25.58
23.48
20.41
16.34
11.33
5.66
-0.24
-5.86
-10.76
-14.72
-17.86
-20.66
-23.69
-27.37
-31.61
-35.76
-38.78
-39.69
-38.00
-33.98
-28.72
-23.73
-20.44
-19.75
-21.70
-25.57
-30.13
-34.09
-36.45
-36.74
-35.01
-31.69
-27.37
-22.64
-18.08
-14.23
-11.59
-10.42
-10.67
-11.87
-13.39
-14.71
-15.60
-16.19
-16.62
-16.85
-16.41
-14.69
-11.24
-6.19
-0.29
5.32
9.62
12.11
12.95
12.83
12.50
12.53
13.09
14.08
15.32
16.72
18.36
20.35
22.58
24.70
26.17
26.52
25.67
23.94
21.92
20.27
19.42
19.69
21.37
24.84
30.53
38.68
49.07
60.86
72.63
82.73
89.60
92.17
90.10
83.90
75.04
65.75
58.52
55.20
56.10
59.28
60.82
55.87
40.22
11.85
-28.17
-75.67
-124.45
-167.71
-199.86
-217.79
-221.53
-213.99
-199.78
-183.52
-168.14
-153.92
-138.52
-118.27
-90.06
-52.91
-8.72
38.25
82.67
119.65
145.92
160.09
162.45
154.32
137.59
114.51
87.68
60.04
34.57
13.79
-0.76
-8.91
-11.83
-11.47
-9.94
-8.75
-8.57
-9.26
-10.27
-11.19
-12.00
-13.07
-14.88
-17.59
-20.79
-23.55
-24.83
-23.91
-20.82
-16.35
-11.75
-8.22
-6.44
-6.37
-7.48
-9.12
-10.85
-12.60
-14.41
-16.20
-17.65
-18.33
-17.93
-16.49
-14.40
-12.04
-9.61
-7.00
-4.08
-0.90
2.02
3.96
4.30
2.87
0.11
-3.18
-6.15
-8.18
-9.04
-8.76
-7.49
-5.42
-2.80
0.05
2.67
4.65
5.73
5.99
5.83
5.92
6.88
9.08
12.48
16.60
20.77
24.37
27.09
28.99
30.42
31.78
33.32
35.15
37.25
39.70
42.70
46.58
51.61
57.87
65.08
72.72
80.10
86.56
91.57
94.99
97.07
98.53
100.40
103.60
108.56
114.83
120.91
124.44
122.55
112.62
93.11
64.31
28.51
-10.27
-47.25
-78.13
-100.08
-112.19
-115.32
-111.42
-102.77
-91.56
-79.68
-68.78
-60.30
-55.26
-54.20
-57.04
-63.17
-71.53
-80.66
-88.69
-93.44
-92.90
-85.81
-72.28
-54.05
-34.17
-16.10
-2.71
4.50
5.59
1.82
-4.94
-12.79
-20.07
-25.51
-28.22
-27.90
-24.94
-20.50
-16.16
-13.34
-12.81
-14.29
-16.77
-18.88
-19.65
-18.77
-16.60
-13.87
-11.30
-9.43
-8.69
-9.46
-12.01
-16.23
-21.40
-26.19
-29.09
-29.01
-25.86
-20.55
-14.63
-9.56
-6.14
-4.46
-4.07
-4.49
-5.41
-6.63
-7.85
-8.55
-8.13
-6.30
-3.31
0.04
2.70
3.97
3.84
2.96
2.31
2.70
4.39
6.99
9.83
12.31
14.23
15.75
17.04
18.05
18.37
17.47
15.03
11.26
6.93
3.09
0.59
-0.23
0.43
2.08
4.27
6.88
9.98
13.65
17.53
20.74
21.85
19.38
12.31
0.58
-14.81
-32.10
-49.22
-64.38
-76.29
-84.25
-87.94
-87.36
-82.90
-75.34
-65.88
-55.89
-46.63
-38.99
-33.39
-29.83
-28.02
-27.46
-27.49
-27.34
-26.35
-24.08
-20.54
-16.13
-11.46
-7.12
-3.50
-0.64
1.61
3.54
5.52
7.96
11.17
15.20
19.82
24.44
28.38
31.07
32.28
32.16
31.07
29.42
27.47
25.39
23.38
21.74
20.81
20.79
21.47
22.24
22.36
21.26
18.93
15.86
12.89
10.78
9.91
10.19
11.03
11.69
11.44
9.79
6.57
2.05
-3.16
-8.20
-12.16
-14.36
-14.50
-12.81
-9.95
-6.81
-4.14
-2.39
-1.50
-1.04
-0.46
0.53
1.80
2.80
2.71
0.78
-3.29
-9.14
-15.77
-21.79
-25.84
-27.18
-25.86
-22.74
-19.08
-15.91
-13.70
-12.28
-11.17
-10.02
-8.87
-8.12
-8.09
-8.71
-9.45
-9.55
-8.45
-6.09
-2.94
0.23
2.69
3.98
4.05
3.11
1.53
-0.23
-1.72
-2.57
-2.58
-1.85
-0.79
0.07
0.34
-0.06
-0.81
-1.42
-1.62
-1.49
-1.52
-2.26
-3.90
-6.12
-8.00
-8.51
-6.89
-3.05
2.45
8.63
14.40
18.87
21.48
22.07
20.77
17.99
14.34
10.61
7.55
5.69
5.23
5.99
7.52
9.31
10.92
12.13
12.89
13.33
13.54
13.62
13.63
13.60
13.52
13.38
13.22
13.03
12.81
12.43
11.73
10.48
8.55
5.99
3.12
0.39
-1.80
-3.18
-3.80
-4.00
-4.23
-4.93
-6.31
-8.29
-10.58
-12.84
-14.75
-16.10
-16.82
-16.88
-16.33
-15.23
-13.64
-11.60
-9.14
-6.25
-2.90
0.83
4.71
8.39
11.38
13.22
13.56
12.28
9.67
6.60
4.44
4.68
8.25
14.96
23.23
30.65
34.97
35.06
31.36
25.58
19.69
14.98
11.68
9.15
6.62
3.66
0.42
-2.75
-5.59
-8.21
-10.91
-14.02
-17.61
-21.40
-24.82
-27.22
-27.97
-26.77
-23.74
-19.41
-14.64
-10.34
-7.07
-4.86
-3.26
-1.54
0.83
3.95
7.42
10.59
12.85
13.99
14.18
13.97
13.92
14.40
15.47
16.89
18.31
19.49
20.36
20.97
21.33
21.33
20.73
19.29
17.00
14.12
11.20
8.79
7.20
6.39
5.95
5.36
4.20
2.37
0.07
-2.26
-4.16
-5.28
-5.50
-4.99
-4.07
-3.13
-2.41
-2.02
-1.81
-1.57
-1.05
-0.10
1.32
3.10
5.02
6.86
8.41
9.51
10.07
10.08
9.59
8.68
7.46
6.10
4.90
4.18
4.28
5.38
7.36
9.83
12.21
13.92
14.59
14.23
13.15
11.82
10.68
9.88
9.26
8.38
6.79
4.12
0.38
-4.15
-8.90
-13.25
-16.60
-18.57
-18.98
-17.88
-15.52
-12.30
-8.68
-5.10
-1.90
0.69
2.63
3.97
4.90
5.63
6.41
7.39
8.63
10.01
11.21
11.87
11.72
10.77
9.37
8.17
7.84
8.89
11.35
14.77
18.29
20.76
21.12
18.57
12.87
4.53
-5.25
-14.69
-22.10
-26.19
-26.63
-24.00
-19.56
-14.76
-10.79
-8.28
-7.22
-7.23
-7.73
-8.22
-8.36
-8.05
-7.30
-6.20
-4.83
-3.21
-1.43
0.48
2.43
4.34
6.10
7.57
8.52
8.73
8.08
6.61
4.60
2.49
0.72
-0.32
-0.45
0.39
2.05
4.20
6.38
8.02
8.58
7.68
5.21
1.40
-3.33
-8.41
-13.32
-17.62
-21.00
-23.25
-24.37
-24.50
-23.88
-22.77
-21.39
-19.80
-18.06
-16.26
-14.51
-13.00
-11.80
-10.82
-9.78
-8.28
-5.96
-2.76
1.04
4.84
7.88
9.57
9.62
8.18
5.67
2.68
-0.35
-3.21
-5.91
-8.62
-11.50
-14.65
-18.07
-21.68
-25.39
-29.09
-32.70
-36.22
-39.73
-43.46
-47.71
-52.82
-59.02
-66.35
-74.68
-83.70
-93.00
-102.08
-110.30
-116.94
-121.18
-122.01
-118.28
-108.71
-92.08
-67.44
-34.48
5.95
51.63
98.85
142.99
179.40
204.58
216.92
217.04
207.33
191.15
171.82
151.97
133.27
116.53
101.96
89.53
79.10
70.44
63.25
57.13
51.64
46.36
41.08
35.82
30.86
26.57
23.08
20.11
17.02
13.01
7.59
0.90
-6.30
-12.84
-17.67
-20.26
-20.70
-19.56
-17.64
-15.67
-14.09
-13.08
-12.65
-12.68
-13.04
-13.57
-14.09
-14.40
-14.31
-13.73
-12.71
-11.42
-10.18
-9.27
-8.84
-8.77
-8.77
-8.52
-7.90
-6.96
-5.95
-5.05
-4.31
-3.66
-3.00
-2.42
-2.06
-2.07
-2.40
-2.76
-2.73
-2.08
-0.88
0.52
1.65
2.27
2.44
2.49
2.71
3.23
3.84
4.13
3.74
2.46
0.34
-2.32
-5.21
-8.06
-10.72
-13.14
-15.29
-17.03
-18.12
-18.27
-17.24
-15.05
-11.97
-8.58
-5.59
-3.68
-3.26
-4.38
-6.69
-9.64
-12.71
-15.62
-18.36
-21.18
-24.37
-28.09
-32.28
-36.66
-40.86
-44.45
-47.00
-48.09
-47.39
-44.80
-40.59
-35.47
-30.31
-25.85
-22.38
-19.58
-16.71
-13.06
-8.25
-2.42
3.93
10.23
16.16
21.69
26.96
31.95
36.37
39.75
41.66
42.03
41.21
39.82
38.41
37.27
36.28
35.00
32.86
29.42
24.44
18.05
10.60
2.60
-5.52
-13.46
-21.05
-28.14
-34.40
-39.34
-42.35
-43.03
-41.32
-37.59
-32.46
-26.50
-20.09
-13.39
-6.51
0.19
6.06
10.24
11.92
10.70
6.82
1.15
-5.00
-10.28
-13.63
-14.56
-13.08
-9.50
-4.23
2.35
9.84
17.66
25.06
31.27
35.77
38.47
39.76
40.22
40.32
40.18
39.55
38.02
35.26
31.31
26.52
21.48
16.78
12.86
9.94
8.01
6.89
6.28
5.73
4.71
2.64
-1.08
-6.82
-14.67
-24.39
-35.44
-47.24
-59.36
-71.69
-84.23
-96.85
-108.73
-118.30
-123.44
-122.17
-113.40
-97.48
-76.09
-51.68
-26.74
-3.15
17.90
35.72
49.75
59.51
64.63
65.22
61.93
55.85
48.11
39.50
30.29
20.28
9.23
-2.78
-14.95
-25.89
-34.07
-38.40
-38.72
-35.83
-31.06
-25.66
-20.31
-14.94
-9.14
-2.58
4.59
11.74
18.01
22.81
26.00
27.90
29.00
29.62
29.74
29.14
27.57
25.05
22.03
19.25
17.52
17.35
18.69
21.02
23.58
25.79
27.51
29.02
30.82
33.14
35.79
38.27
39.98
40.71
40.65
40.29
40.05
39.97
39.65
38.48
35.92
31.79
26.31
19.97
13.37
6.90
0.63
-5.75
-12.83
-21.13
-30.76
-41.04
-50.61
-57.85
-61.54
-61.40
-58.28
-53.72
-49.33
-46.13
-44.36
-43.60
-43.23
-42.79
-42.18
-41.54
-41.10
-41.07
-41.66
-43.21
-45.95
-49.82
-53.97
-56.49
-54.73
-46.13
-29.37
-5.20
23.36
51.87
75.89
92.41
100.70
102.17
99.39
94.86
89.92
84.38
76.99
66.33
51.92
34.76
17.09
1.57
-9.79
-16.40
-19.01
-19.02
-17.62
-15.28
-11.89
-7.27
-1.78
3.66
7.92
10.32
10.89
10.36
9.59
9.15
9.02
8.77
7.91
6.25
4.11
2.16
1.18
1.67
3.65
6.62
9.73
12.01
12.65
11.27
7.99
3.40
-1.60
-6.01
-9.02
-10.25
-9.77
-8.08
-5.87
-3.71
-1.89
-0.44
0.75
1.75
2.40
2.43
1.58
-0.26
-3.02
-6.51
-10.46
-14.62
-18.65
-22.14
-24.62
-25.68
-25.23
-23.53
-21.21
-18.99
-17.31
-16.18
-15.20
-13.86
-11.82
-9.18
-6.45
-4.33
-3.44
-4.02
-5.89
-8.54
-11.31
-13.66
-15.28
-16.04
-16.04
-15.43
-14.39
-13.13
-11.88
-10.86
-10.27
-10.22
-10.62
-11.27
-11.83
-11.96
-11.43
-10.19
-8.39
-6.28
-4.18
-2.32
-0.85
0.17
0.70
0.66
-0.09
-1.67
-4.01
-6.86
-9.63
-11.59
-12.03
-10.58
-7.36
-2.93
1.85
6.16
9.41
11.41
12.32
12.52
12.46
12.50
12.84
13.54
14.56
15.79
17.12
18.36
19.30
19.71
19.39
18.21
16.24
13.78
11.31
9.40
8.46
8.58
9.47
10.55
11.27
11.22
10.37
8.97
7.40
5.97
4.76
3.70
2.60
1.26
-0.46
-2.63
-5.18
-7.91
-10.43
-12.30
-13.12
-12.71
-11.17
-8.73
-5.76
-2.55
0.70
3.79
6.52
8.65
10.00
10.47
10.21
9.46
8.51
7.52
6.46
5.14
3.29
0.66
-2.87
-7.26
-12.34
-17.79
-23.16
-28.06
-32.12
-35.21
-37.40
-38.95
-40.09
-40.85
-40.97
-39.99
-37.60
-33.88
-29.44
-25.20
-21.99
-20.12
-19.27
-18.71
-17.66
-15.78
-13.18
-10.30
-7.58
-5.16
-2.87
-0.36
2.64
6.18
10.05
13.89
17.34
20.13
22.14
23.37
23.90
23.87
23.43
22.71
21.84
20.94
20.07
19.08
17.59
15.07
10.98
5.19
-1.87
-9.19
-15.45
-19.48
-20.67
-19.14
-15.52
-10.65
-5.32
-0.11
4.58
8.44
11.30
13.07
13.92
14.20
14.40
15.06
16.59
19.14
22.60
26.48
30.01
32.32
32.71
30.98
27.59
23.55
20.06
18.06
17.79
18.82
20.20
20.95
20.45
18.66
16.04
13.26
10.97
9.55
9.11
9.54
10.41
11.09
10.71
8.35
3.41
-4.16
-13.69
-23.93
-33.49
-41.15
-46.24
-48.66
-48.78
-47.25
-44.72
-41.79
-38.86
-36.18
-33.70
-31.05
-27.56
-22.36
-14.76
-4.52
7.87
21.23
33.97
44.62
52.12
56.01
56.23
52.84
45.90
35.70
23.09
9.59
-2.74
-11.90
-16.56
-16.47
-12.39
-5.73
1.97
9.35
15.28
18.72
18.64
14.23
5.28
-7.36
-21.58
-34.44
-43.01
-45.48
-41.83
-33.81
-24.17
-15.57
-9.52
-6.09
-4.34
-3.10
-1.77
-0.55
-0.18
-1.32
-4.03
-7.59
-10.74
-12.20
-11.11
-7.35
-1.50
5.45
12.47
18.83
24.18
28.43
31.45
32.92
32.41
29.61
24.70
18.39
11.80
6.05
1.91
-0.37
-1.00
-0.37
1.10
3.08
5.29
7.45
9.42
11.30
13.43
16.17
19.50
22.80
25.00
25.10
22.79
18.61
13.77
9.55
6.82
5.80
6.22
7.59
9.44
11.41
13.18
14.54
15.47
16.19
17.09
18.49
20.38
22.33
23.73
24.05
23.12
21.14
18.52
15.64
12.78
10.11
7.82
6.09
5.00
4.44
4.05
3.33
1.85
-0.56
-3.79
-7.44
-11.00
-13.99
-16.11
-17.23
-17.50
-17.18
-16.65
-16.32
-16.56
-17.77
-20.26
-24.22
-29.64
-36.29
-43.77
-51.58
-59.26
-66.34
-72.34
-76.67
-78.63
-77.62
-73.36
-66.09
-56.60
-46.08
-35.78
-26.71
-19.41
-14.00
-10.38
-8.40
-7.84
-8.49
-9.91
-11.47
-12.47
-12.39
-11.11
-8.97
-6.53
-4.35
-2.64
-1.28
0.09
1.78
3.88
6.28
8.75
11.17
13.52
15.94
18.66
21.97
26.14
31.47
38.00
45.31
52.25
56.87
56.96
50.84
38.20
20.46
0.41
-18.83
-34.85
-46.52
-53.93
-57.68
-58.25
-55.85
-50.69
-43.39
-35.07
-26.96
-19.71
-13.05
-5.86
3.10
14.44
27.75
41.81
55.02
66.00
73.78
77.69
77.17
71.71
61.01
45.34
25.71
3.77
-18.53
-39.40
-57.60
-72.50
-84.03
-92.43
-98.07
-101.38
-102.81
-102.87
-102.09
-100.95
-99.87
-99.11
-98.84
-99.10
-99.82
-100.93
-102.36
-104.08
-106.11
-108.39
-110.59
-111.93
-111.07
-106.37
-96.16
-79.34
-55.76
-26.47
6.42
40.16
71.98
99.72
122.20
139.25
151.40
159.52
164.29
166.15
165.34
162.02
156.55
149.39
140.95
131.38
120.47
107.92
93.60
77.92
61.78
46.45
33.11
22.51
14.81
9.56
5.99
3.29
0.91
-1.35
-3.34
-4.75
-5.34
-5.11
-4.38
-3.67
-3.51
-4.16
-5.59
-7.41
-9.15
-10.43
-11.13
-11.39
-11.48
-11.68
-12.08
-12.70
-13.36
-13.80
-13.77
-12.91
-10.87
-7.42
-2.61
3.14
9.02
14.08
17.55
19.12
19.01
17.77
15.91
13.69
11.07
7.94
4.36
0.73
-2.36
-4.47
-5.58
-6.09
-6.67
-7.89
-9.95
-12.56
-15.11
-16.87
-17.25
-16.01
-13.26
-9.44
-5.13
-0.84
3.11
6.62
9.76
12.67
15.50
18.42
21.61
25.26
29.42
34.01
38.75
43.26
47.28
50.76
53.84
56.66
59.31
61.77
63.93
65.70
67.09
68.09
68.71
68.81
68.19
66.70
64.40
61.52
58.51
55.81
53.77
52.53
52.05
52.28
53.27
55.23
58.48
63.25
69.46
76.63
84.04
90.88
96.46
100.09
100.73
96.92
87.00
69.48
43.76
10.34
-29.55
-74.70
-124.24
-177.23
-231.46
-282.51
-324.07
-349.77
-355.65
-341.96
-313.25
-276.38
-237.84
-201.54
-168.37
-137.39
-107.52
-78.90
-53.05
-32.10
-17.74
-10.33
-8.58
-9.78
-10.33
-6.57
4.17
22.90
48.86
79.76
112.53
144.06
171.71
193.48
208.05
214.78
213.76
205.94
192.95
176.69
158.82
140.43
121.99
103.56
85.23
67.32
50.46
35.31
22.35
11.66
2.98
-4.13
-10.05
-15.06
-19.38
-23.21
-26.75
-30.16
-33.45
-36.52
-39.16
-41.19
-42.56
-43.43
-44.03
-44.60
-45.22
-45.76
-45.94
-45.49
-44.20
-42.07
-39.35
-36.44
-33.76
-31.61
-30.06
-29.00
-28.24
-27.57
-26.86
-26.04
-25.03
-23.79
-22.42
-21.09
-20.08
-19.58
-19.53
-19.54
-18.97
-17.21
-13.90
-9.11
-3.34
2.70
8.34
13.23
17.31
20.77
23.91
26.95
29.92
32.73
35.17
37.11
38.50
39.41
39.92
40.16
40.29
40.61
41.59
43.66
46.91
50.83
54.20
55.39
52.91
46.09
35.26
21.71
7.20
-6.70
-18.95
-29.27
-37.99
-45.89
-53.93
-62.99
-73.71
-86.22
-100.01
-113.94
-126.45
-135.91
-141.19
-141.91
-138.53
-132.11
-123.82
-114.49
-104.40
-93.38
-81.15
-67.78
-53.87
-40.43
-28.54
-18.89
-11.61
-6.40
-2.69
-0.02
1.90
3.24
4.25
5.27
6.75
8.94
11.77
14.81
17.39
18.91
19.12
18.21
16.62
14.83
13.12
11.44
9.55
7.25
4.49
1.46
-1.48
-4.00
-5.86
-6.98
-7.33
-6.92
-5.78
-4.05
-1.96
0.15
1.96
3.28
4.11
4.60
4.93
5.19
5.34
5.29
5.00
4.51
3.96
3.45
3.02
2.57
2.05
1.44
0.87
0.46
0.24
0.13
-0.12
-0.68
-1.62
-2.81
-4.01
-5.02
-5.80
-6.48
-7.34
-8.64
-10.52
-12.85
-15.26
-17.22
-18.23
-17.95
-16.36
-13.75
-10.64
-7.55
-4.83
-2.52
-0.44
1.64
3.82
5.98
7.84
9.16
9.82
9.93
9.71
9.38
9.06
8.73
8.32
7.80
7.24
6.80
6.62
6.76
7.11
7.42
7.40
6.85
5.69
4.00
1.93
-0.39
-2.90
-5.63
-8.48
-11.29
-13.74
-15.43
-16.02
-15.33
-13.40
-10.44
-6.82
-2.95
0.78
4.00
6.50
8.28
9.45
10.26
10.93
11.54
12.05
12.30
12.19
11.67
10.80
9.70
8.49
7.28
6.14
5.11
4.23
3.53
3.04
2.69
2.41
2.00
1.34
0.27
-1.29
-3.38
-5.96
-8.98
-12.35
-15.93
-19.44
-22.43
-24.35
-24.65
-23.01
-19.52
-14.70
-9.36
-4.30
-0.07
3.20
5.65
7.55
9.06
10.17
10.80
10.89
10.57
10.07
9.68
9.59
9.81
10.23
10.65
10.95
11.08
11.07
10.92
10.61
10.06
9.22
8.10
6.74
5.23
3.62
1.89
-0.04
-2.33
-5.11
-8.39
-11.97
-15.44
-18.29
-20.00
-20.25
-18.94
-16.16
-12.13
-7.09
-1.28
4.94
11.16
16.83
21.43
24.63
26.43
27.12
27.21
27.22
27.50
28.26
29.49
31.05
32.75
34.39
35.83
37.02
38.10
39.28
40.83
42.85
45.11
46.98
47.51
45.72
40.94
33.18
23.25
12.62
2.97
-4.27
-8.42
-9.73
-9.33
-8.77
-9.51
-12.44
-17.54
-24.07
-30.80
-36.46
-40.14
-41.39
-40.23
-36.94
-31.96
-25.83
-19.19
-12.77
-7.28
-3.25
-0.81
0.29
0.63
0.88
1.55
2.80
4.48
6.22
7.63
8.51
8.86
8.86
8.72
8.58
8.42
8.12
7.56
6.68
5.56
4.29
2.93
1.42
-0.38
-2.61
-5.28
-8.25
-11.37
-14.41
-17.23
-19.65
-21.39
-22.07
-21.33
-18.97
-15.12
-10.22
-4.93
0.11
4.50
8.08
10.97
13.35
15.36
17.08
18.48
19.50
20.09
20.27
20.11
19.74
19.33
19.06
19.03
19.26
19.66
20.10
20.47
20.65
20.58
20.26
19.67
18.77
17.61
16.28
14.87
13.48
12.12
10.66
8.92
6.68
3.80
0.31
-3.64
-7.76
-11.71
-15.15
-17.78
-19.39
-19.87
-19.16
-17.30
-14.39
-10.60
-6.17
-1.43
3.24
7.52
11.19
14.13
16.35
17.88
18.81
19.28
19.48
19.65
20.01
20.69
21.64
22.65
23.46
23.93
24.07
24.04
24.04
24.16
24.36
24.45
24.25
23.70
22.90
22.03
21.20
20.42
19.57
18.51
17.21
15.79
14.45
13.30
12.30
11.26
9.99
8.47
7.01
6.13
6.43
8.33
11.95
17.17
23.66
31.08
38.98
46.86
54.02
59.67
63.05
63.72
61.72
57.49
51.79
45.35
38.73
32.26
26.18
20.72
16.14
12.62
10.16
8.49
7.08
5.39
2.97
-0.35
-4.46
-9.00
-13.39
-17.00
-19.30
-20.04
-19.40
-17.91
-16.27
-15.07
-14.62
-14.90
-15.67
-16.60
-17.46
-18.13
-18.56
-18.79
-18.92
-19.06
-19.35
-19.90
-20.72
-21.73
-22.82
-23.91
-25.05
-26.36
-27.99
-30.00
-32.28
-34.61
-36.67
-38.09
-38.55
-37.75
-35.55
-31.95
-27.24
-21.92
-16.66
-12.00
-8.29
-5.54
-3.54
-1.98
-0.62
0.70
2.02
3.33
4.58
5.72
6.60
7.12
7.26
7.13
6.99
7.07
7.40
7.84
8.06
7.80
7.01
5.83
4.52
3.26
2.06
0.82
-0.57
-2.11
-3.70
-5.19
-6.53
-7.83
-9.28
-11.03
-13.06
-15.26
-17.47
-19.59
-21.61
-23.56
-25.34
-26.67
-27.16
-26.41
-24.28
-20.98
-17.01
-13.09
-9.85
-7.69
-6.67
-6.59
-7.09
-7.83
-8.55
-9.20
-9.83
-10.61
-11.68
-13.03
-14.57
-16.02
-17.08
-17.41
-16.83
-15.32
-13.07
-10.45
-7.88
-5.71
-4.10
-3.02
-2.36
-1.98
-1.84
-1.94
-2.39
-3.23
-4.45
-5.99
-7.70
-9.43
-11.05
-12.48
-13.64
-14.59
-15.46
-16.40
-17.51
-18.69
-19.65
-19.95
-19.19
-17.14
-13.94
-9.94
-5.71
-1.76
1.58
4.21
6.22
7.73
8.88
9.69
10.23
10.55
10.74
10.91
11.04
11.04
10.78
10.21
9.41
8.63
8.14
8.13
8.58
9.26
9.83
10.00
9.62
8.73
7.49
6.09
4.67
3.27
1.83
0.34
-1.22
-2.79
-4.31
-5.76
-7.22
-8.82
-10.64
-12.71
-14.89
-16.96
-18.68
-19.84
-20.23
-19.71
-18.16
-15.58
-12.13
-8.10
-3.87
0.17
3.73
6.64
8.85
10.42
11.44
11.98
12.16
12.02
11.66
11.15
10.64
10.23
9.98
9.89
9.86
9.81
9.67
9.45
9.24
9.08
8.96
8.75
8.29
7.44
6.19
4.55
2.61
0.53
-1.53
-3.36
-4.80
-5.86
-6.68
-7.55
-8.77
-10.48
-12.58
-14.85
-16.93
-18.55
-19.52
-19.70
-18.97
-17.19
-14.35
-10.65
-6.54
-2.57
0.79
3.31
5.03
6.17
6.96
7.54
7.91
8.01
7.82
7.39
6.82
6.20
5.62
5.05
4.48
3.93
3.44
3.14
3.14
3.50
4.15
4.91
5.52
5.71
5.31
4.28
2.78
1.06
-0.63
-2.10
-3.36
-4.50
-5.69
-7.11
-8.84
-10.88
-13.12
-15.39
-17.47
-19.08
-19.95
-19.81
-18.53
-16.17
-12.96
-9.22
-5.29
-1.45
2.08
5.11
7.45
9.00
9.75
9.83
9.46
8.85
8.13
7.22
6.06
4.66
3.18
1.95
1.26
1.29
1.97
3.04
4.15
4.95
5.18
4.76
3.74
2.27
0.54
-1.32
-3.16
-4.89
-6.42
-7.72
-8.89
-10.16
-11.86
-14.18
-17.07
-20.13
-22.73
-24.23
-24.23
-22.68
-19.84
-16.13
-11.99
-7.74
-3.64
0.11
3.34
5.94
7.85
9.09
9.76
9.98
9.91
9.74
9.64
9.71
9.96
10.26
10.44
10.32
9.80
8.91
7.82
6.77
5.97
5.47
5.17
4.84
4.26
3.32
2.02
0.50
-1.08
-2.66
-4.23
-5.92
-7.82
-10.05
-12.60
-15.39
-18.23
-20.79
-22.61
-23.20
-22.25
-19.70
-15.80
-11.10
-6.18
-1.55
2.50
5.87
8.56
10.58
11.89
12.50
12.42
11.82
10.96
10.15
9.61
9.42
9.52
9.71
9.80
9.63
9.21
8.62
8.00
7.46
7.07
6.76
6.45
5.95
5.14
3.95
2.43
0.69
-1.11
-2.84
-4.51
-6.23
-8.19
-10.57
-13.40
-16.46
-19.33
-21.46
-22.37
-21.73
-19.53
-16.01
-11.60
-6.80
-2.04
2.30
5.97
8.82
10.81
11.99
12.57
12.79
12.91
13.04
13.20
13.32
13.33
13.16
12.80
12.29
11.66
10.95
10.23
9.59
9.14
8.91
8.81
8.60
8.03
6.86
5.04
2.80
0.41
-1.78
-3.61
-5.15
-6.58
-8.13
-10.02
-12.33
-14.93
-17.65
-20.19
-22.26
-23.54
-23.76
-22.72
-20.42
-17.02
-12.90
-8.58
-4.58
-1.26
1.23
2.96
4.08
4.66
4.73
4.25
3.27
1.94
0.47
-0.96
-2.33
-3.76
-5.43
-7.38
-9.49
-11.51
-13.21
-14.47
-15.41
-16.30
-17.53
-19.48
-22.38
-26.29
-31.00
-35.96
-40.42
-43.62
-45.01
-44.46
-42.30
-39.06
-35.27
-31.25
-26.89
-21.82
-15.53
-7.64
1.96
13.01
24.91
36.77
47.62
56.60
63.07
66.67
67.29
65.01
60.07
52.92
44.18
34.65
25.18
16.46
8.90
2.59
-2.57
-6.68
-9.83
-12.00
-13.18
-13.46
-13.12
-12.51
-12.02
-11.92
-12.27
-12.96
-13.70
-14.22
-14.31
-13.90
-12.92
-11.36
-9.18
-6.43
-3.24
0.02
2.85
4.72
5.17
4.05
1.54
-1.87
-5.47
-8.42
-9.93
-9.37
-6.46
-1.34
5.44
13.02
20.46
26.98
32.00
35.26
36.72
36.54
35.03
32.66
29.91
27.17
24.62
22.19
19.65
16.78
13.53
10.02
6.56
3.37
0.56
-1.92
-4.20
-6.35
-8.30
-9.84
-10.76
-10.94
-10.43
-9.42
-8.19
-7.06
-6.26
-5.87
-5.81
-5.89
-5.98
-6.05
-6.32
-7.15
-8.92
-11.72
-15.21
-18.63
-21.02
-21.61
-20.18
-17.11
-13.21
-9.33
-5.98
-3.11
-0.22
3.32
7.84
13.09
18.29
22.59
25.57
27.60
29.80
33.51
39.77
48.74
59.78
71.79
83.62
94.42
103.71
111.52
118.58
126.70
139.01
159.54
191.91
237.48
293.90
354.93
411.81
455.80
480.79
484.72
469.48
439.46
399.65
354.33
306.61
258.91
213.46
172.50
137.61
109.00
85.06
63.03
40.26
15.65
-9.74
-33.10
-51.20
-62.07
-65.87
-64.84
-62.16
-60.56
-61.32
-64.12
-67.70
-70.70
-72.49
-73.26
-73.85
-75.05
-77.14
-79.51
-80.78
-79.30
-73.56
-62.61
-46.29
-25.22
-0.83
24.57
47.92
65.79
74.97
73.39
60.75
38.86
11.10
-18.46
-46.46
-71.12
-92.45
-111.79
-130.70
-150.14
-169.95
-189.13
-206.36
-220.78
-232.38
-242.03
-251.10
-260.84
-271.69
-282.87
-292.35
-297.34
-295.35
-285.28
-268.26
-247.70
-228.19
-213.95
-207.20
-207.35
-211.13
-213.70
-210.34
-197.90
-175.60
-144.90
-108.64
-69.84
-30.89
6.54
41.09
71.19
94.66
109.06
112.31
103.56
83.85
56.30
25.65
-2.54
-23.16
-32.93
-31.53
-22.04
-10.61
-4.97
-12.39
-37.04
-77.97
-128.52
-177.72
-213.70
-227.74
-217.11
-185.42
-140.48
-90.81
-43.32
-3.03
25.59
37.24
26.52
-9.35
-67.27
-137.17
-204.44
-255.37
-282.42
-286.68
-276.11
-260.83
-247.93
-238.73
-229.38
-213.83
-187.56
-149.92
-104.32
-56.76
-13.33
21.88
47.59
65.05
76.83
85.38
92.22
97.90
102.55
106.66
111.33
117.94
127.43
139.73
153.80
168.35
182.87
198.12
215.79
237.43
263.23
291.44
318.68
340.98
355.12
359.60
354.83
342.83
326.48
308.87
293.01
281.65
277.14
280.86
292.49
309.39
326.77
338.76
340.17
328.12
302.83
267.22
225.58
182.01
139.39
99.26
62.28
28.65
-1.75
-29.52
-56.01
-83.04
-112.27
-144.43
-179.18
-215.16
-250.83
-285.29
-318.64
-352.13
-387.97
-428.95
-477.56
-534.64
-597.88
-661.08
-715.01
-749.96
-759.12
-741.20
-700.81
-646.50
-587.24
-529.46
-475.80
-425.98
-378.73
-333.46
-290.63
-251.07
-215.05
-181.83
-150.10
-118.83
-87.79
-57.59
-29.35
-3.90
18.62
38.83
57.78
76.45
95.39
114.55
133.51
151.78
169.38
187.08
206.42
229.14
256.30
287.41
319.95
349.91
373.01
386.25
389.05
383.26
372.17
358.91
345.19
331.08
315.66
298.19
279.01
259.58
241.84
227.16
215.75
206.60
198.20
189.41
180.09
171.22
164.42
161.14
161.96
166.28
172.58
179.06
184.29
187.56
188.76
187.95
185.00
179.51
171.05
159.20
143.54
123.21
96.65
62.29
19.99
-27.24
-72.82
-108.32
-126.87
-126.60
-112.03
-92.52
-78.50
-77.47
-91.52
-117.49
-149.23
-180.07
-204.27
-217.62
-217.39
-202.85
-176.04
-141.92
-106.88
-76.05
-50.80
-28.22
-3.14
28.32
66.05
105.46
139.60
162.76
173.04
172.84
167.01
160.11
154.85
152.00
151.58
153.93
159.72
168.93
179.85
188.94
191.91
185.68
169.59
145.54
116.98
87.19
58.11
30.27
3.43
-22.55
-46.93
-68.48
-86.14
-99.74
-110.46
-121.04
-135.50
-158.18
-192.03
-236.46
-286.13
-331.39
-361.18
-367.03
-346.46
-303.95
-248.77
-191.12
-138.25
-92.78
-53.30
-16.40
21.32
62.48
108.56
159.49
212.88
263.33
303.20
325.15
325.51
306.40
275.69
243.93
220.26
208.98
208.66
213.55
216.58
212.03
197.03
171.75
138.66
101.64
65.01
32.64
6.93
-11.87
-25.70
-37.92
-51.96
-69.97
-92.16
-117.00
-142.19
-165.72
-186.50
-204.37
-219.46
-231.73
-240.84
-246.63
-249.88
-252.62
-257.64
-267.40
-282.67
-301.92
-321.70
-338.01
-348.00
-351.14
-349.25
-345.46
-342.69
-342.36
-344.02
-345.90
-345.79
-341.62
-331.67
-314.53
-289.32
-256.45
-218.37
-179.71
-146.05
-121.89
-108.37
-102.41
-97.65
-87.16
-66.54
-35.67
1.66
40.06
75.44
106.90
136.45
167.08
200.45
235.56
269.26
298.07
320.25
336.61
349.96
363.24
377.77
392.68
405.63
414.50
418.74
419.31
417.65
414.17
407.25
393.58
369.56
332.83
283.36
223.58
157.74
90.88
28.02
-26.27
-68.17
-94.84
-104.88
-98.73
-78.72
-48.78
-13.55
22.56
56.05
84.43
106.07
119.57
123.45
116.33
97.46
67.49
29.03
-13.52
-54.72
-89.48
-114.37
-128.53
-133.82
-133.92
-132.99
-134.12
-138.27
-144.21
-149.28
-150.79
-147.19
-138.57
-126.24
-111.84
-96.69
-81.43
-66.38
-52.01
-39.19
-29.09
-22.85
-21.32
-25.07
-34.74
-51.14
-74.49
-103.17
-132.48
-154.75
-161.73
-148.36
-116.19
-74.24
-36.33
-15.65
-19.64
-47.37
-91.01
-139.84
-184.27
-218.06
-238.05
-243.01
-233.10
-210.58
-180.59
-150.70
-128.36
-117.40
-115.91
-116.76
-111.04
-92.59
-61.02
-21.78
16.67
46.75
64.46
69.92
65.96
56.11
43.20
29.17
15.73
4.84
-1.35
-1.11
6.30
20.71
41.73
69.29
103.70
144.93
191.57
240.09
285.27
321.35
343.70
350.07
341.21
320.51
293.03
264.15
238.36
218.39
205.00
197.23
193.01
189.96
185.80
178.57
166.77
149.56
127.11
100.84
73.21
46.94
23.98
4.76
-11.82
-27.56
-43.80
-60.46
-76.01
-88.15
-94.90
-95.58
-90.96
-82.91
-73.70
-65.33
-59.27
-56.48
-57.38
-61.94
-69.63
-79.54
-90.80
-103.24
-117.83
-136.08
-158.82
-184.56
-208.86
-225.21
-227.23
-211.33
-178.24
-132.85
-82.35
-33.74
8.16
41.40
66.36
84.79
98.84
110.69
122.34
135.39
150.69
168.17
187.08
206.28
224.48
239.99
250.52
253.19
245.17
224.75
192.07
149.41
100.43
49.09
-1.38
-48.75
-91.58
-128.82
-159.68
-184.02
-202.65
-217.38
-230.43
-243.69
-258.19
-274.10
-291.05
-308.50
-325.85
-342.17
-356.12
-366.03
-370.59
-369.32
-362.81
-352.39
-339.44
-325.04
-309.84
-294.47
-279.64
-265.96
-253.43
-241.07
-227.00
-209.24
-186.65
-159.55
-129.52
-98.76
-69.14
-41.66
-16.47
6.88
29.13
51.15
73.69
96.98
120.60
143.68
165.54
186.36
207.20
229.37
253.08
276.49
295.70
305.80
302.51
283.41
248.54
200.25
143.01
83.08
27.92
-15.06
-40.41
-46.48
-36.05
-15.35
8.29
29.01
43.70
52.02
55.10
54.40
51.10
46.25
41.16
37.40
36.33
38.48
43.18
48.80
53.32
55.14
53.57
49.07
43.02
37.16
32.88
30.73
30.07
29.47
27.25
22.40
15.02
6.39
-1.58
-7.17
-9.58
-9.23
-7.56
-6.39
-7.19
-10.48
-15.71
-21.49
-26.20
-28.55
-27.87
-24.13
-17.80
-9.51
0.14
10.54
21.16
31.63
41.99
52.81
65.09
79.80
97.22
116.43
135.43
151.78
163.54
169.90
171.20
168.25
161.46
150.42
134.25
112.41
85.51
55.55
25.43
-1.89
-24.05
-39.59
-47.97
-49.37
-44.59
-35.05
-22.76
-9.94
1.39
9.94
15.25
17.43
16.72
13.10
6.42
-3.05
-13.98
-23.93
-29.98
-29.84
-22.89
-10.39
5.17
21.27
36.37
50.12
62.85
74.63
84.86
92.57
97.06
98.61
98.33
97.61
97.14
96.66
95.16
91.61
85.45
76.55
64.86
50.01
31.43
8.80
-17.23
-44.91
-71.57
-94.48
-111.51
-121.37
-123.62
-118.31
-105.89
-87.26
-63.88
-37.78
-11.24
13.75
35.98
55.23
72.29
88.69
106.19
125.94
147.80
169.72
187.98
198.27
196.96
182.14
153.74
113.12
62.93
7.35
-47.54
-93.99
-124.09
-132.16
-116.76
-81.07
-31.46
24.88
81.56
133.41
175.59
202.98
210.92
197.15
163.63
116.72
65.36
17.82
-20.87
-49.70
-70.48
-85.78
-97.17
-104.73
-107.66
-105.21
-97.21
-84.05
-66.30
-44.84
-21.16
2.01
20.36
28.45
20.89
-5.73
-50.92
-109.21
-170.64
-222.95
-254.96
-259.68
-236.11
-189.09
-127.40
-61.23
0.03
49.02
80.91
93.47
87.27
65.82
35.09
2.41
-25.39
-43.76
-51.53
-50.71
-45.51
-40.83
-40.81
-47.88
-62.32
-82.38
-104.79
-125.62
-141.40
-150.44
-153.61
-154.24
-156.76
-164.32
-176.62
-189.00
-193.69
-182.95
-152.58
-104.21
-45.12
14.42
64.87
100.40
120.15
127.42
127.68
126.34
127.24
131.97
139.99
149.30
157.18
161.12
159.41
151.58
138.41
121.80
103.97
86.63
70.34
54.45
37.61
18.76
-1.99
-23.20
-42.32
-56.78
-64.82
-65.75
-59.72
-47.15
-28.57
-4.88
22.21
50.16
75.76
95.87
108.42
112.80
109.74
100.37
85.49
65.44
41.37
15.33
-9.47
-29.06
-39.77
-39.31
-27.73
-7.66
16.02
38.99
57.09
67.67
70.54
68.43
66.31
69.71
82.34
104.58
136.17
174.86
217.77
262.38
306.66
348.69
386.14
416.18
436.18
447.95
454.27
457.51
458.15
454.58
444.39
425.91
399.34
346.95
261.59
146.64
16.12
-111.30
-220.61
-304.82
-364.18
-403.09
-427.72
-440.64
-443.81
-439.01
-428.67
-415.75
-402.83
-391.89
-384.36
-381.70
-382.68
-386.57
-393.68
-405.24
-422.08
-443.12
-464.92
-479.42
-479.69
-460.43
-421.43
-367.63
-307.05
-247.70
-194.97
-150.69
-113.94
-83.21
-56.14
-30.70
-5.05
22.46
52.99
86.66
121.91
155.45
182.59
199.24
203.44
196.47
182.78
168.58
159.59
159.04
166.76
179.59
193.30
204.32
210.76
212.21
209.00
201.53
190.16
175.47
158.44
140.45
122.94
107.20
94.56
86.43
84.31
89.18
100.89
117.72
136.91
155.70
172.27
186.14
197.53
206.17
210.43
207.24
193.23
166.47
127.95
82.04
35.69
-3.54
-29.81
-40.63
-37.06
-22.63
-1.49
23.30
50.05
77.78
104.83
128.26
144.59
151.38
148.86
140.05
129.33
119.88
111.88
102.24
86.24
59.92
21.96
-25.87
-79.59
-134.26
-185.05
-227.67
-258.83
-277.12
-283.90
-283.51
-281.91
-284.14
-292.10
-303.96
-315.77
-324.27
-329.13
-333.20
-340.88
-355.51
-377.67
-404.84
-432.55
-455.82
-470.24
-472.60
-461.32
-436.85
-401.86
-360.58
-317.44
-275.44
-235.40
-196.31
-156.70
-115.81
-74.05
-32.46
8.10
47.34
85.29
121.61
155.21
184.43
207.64
223.96
233.57
237.41
236.80
233.10
227.84
222.81
219.96
220.89
226.17
234.90
244.93
253.50
258.00
256.38
247.25
229.86
204.24
171.52
134.20
96.04
61.30
33.67
15.34
6.44
5.30
9.09
14.63
19.00
20.01
16.51
8.59
-2.43
-14.39
-25.02
-32.68
-36.81
-37.99
-37.44
-36.38
-35.41
-34.24
-31.93
-27.49
-20.49
-11.34
-1.12
8.86
17.67
25.00
31.02
35.98
39.94
42.66
43.75
43.00
40.35
35.86
29.51
21.25
11.21
0.02
-11.03
-20.34
-26.52
-29.08
-28.62
-26.63
-24.98
-25.25
-28.13
-33.33
-39.73
-45.80
-50.06
-51.43
-49.25
-43.45
-34.40
-22.94
-10.25
2.23
13.15
21.55
27.22
30.90
33.75
37.07
41.85
48.75
58.06
69.83
83.76
99.08
114.72
129.00
140.15
146.95
149.21
147.91
144.67
141.19
138.83
138.87
141.79
147.45
155.19
164.13
173.47
182.55
190.82
197.55
202.10
202.79
197.33
183.66
160.99
130.73
96.09
61.01
25.52
-8.01
-36.32
-56.12
-65.46
-64.34
-54.04
-36.67
-14.84
8.69
31.95
52.76
70.47
85.39
98.27
110.26
122.11
133.64
143.68
150.88
153.60
150.53
143.22
133.43
123.16
113.74
105.13
95.86
83.94
67.41
45.40
18.47
-11.95
-43.96
-76.26
-108.85
-142.90
-180.17
-222.46
-270.77
-324.62
-381.53
-436.23
-481.07
-507.48
-508.15
-479.25
-421.91
-342.21
-249.77
-155.19
-67.01
10.44
77.35
136.62
190.80
239.66
279.67
305.97
315.39
308.83
291.28
269.25
247.57
227.17
205.78
180.53
150.71
118.82
89.22
65.55
48.75
36.99
27.13
16.69
5.20
-5.85
-13.95
-16.95
-14.03
-6.00
5.05
16.57
26.44
33.48
37.53
39.07
38.64
36.49
32.41
26.05
17.17
6.05
-6.45
-19.08
-30.50
-39.65
-45.91
-49.16
-49.57
-47.44
-43.07
-36.73
-28.77
-19.67
-10.09
-0.78
7.52
14.22
18.97
21.55
21.85
19.74
15.12
7.96
-1.55
-12.87
-25.18
-37.55
-49.11
-59.36
-68.20
-75.81
-82.47
-88.17
-92.46
-94.47
-93.20
-87.97
-78.83
-66.80
-53.71
-41.75
-32.97
-28.73
-29.75
-36.05
-47.35
-63.45
-84.39
-110.65
-143.39
-184.52
-235.98
-298.49
-369.80
-443.69
-510.63
-560.07
-583.49
-576.89
-541.75
-484.12
-413.41
-340.41
-275.88
-229.31
-207.51
-213.42
-245.27
-296.96
-359.44
-422.83
-478.16
-518.45
-539.08
-537.90
-515.73
-476.18
-425.11
-369.16
-313.95
-262.85
-216.79
-175.14
-136.73
-100.96
-67.96
-38.31
-12.56
9.20
27.31
42.27
54.18
63.04
68.38
69.86
67.41
61.43
52.75
42.40
31.32
20.21
9.51
-0.57
-9.81
-17.83
-24.05
-27.83
-28.60
-26.15
-20.72
-13.04
-4.14
4.87
12.97
19.46
23.90
26.13
26.15
24.03
19.91
14.06
7.05
-0.26
-6.62
-10.75
-11.53
-8.45
-1.79
7.44
17.79
27.95
37.22
45.77
54.44
64.26
75.85
88.87
102.08
113.78
122.54
128.05
131.26
134.14
138.82
146.56
157.15
169.03
179.97
188.17
193.16
195.97
198.86
204.73
216.58
236.89
266.74
304.36
343.95
375.94
389.29
375.87
334.68
273.84
208.53
155.93
129.24
133.55
165.30
214.58
269.31
318.29
353.02
367.59
358.27
323.68
266.04
192.43
114.36
45.47
-2.53
-23.61
-18.94
4.21
35.77
66.79
91.64
108.08
116.11
116.53
110.80
101.68
93.39
90.51
96.03
109.69
127.98
145.98
159.77
167.83
171.08
171.57
171.12
170.30
168.30
163.37
153.41
136.53
111.56
78.77
40.13
-0.91
-40.12
-73.88
-100.12
-118.67
-131.17
-140.64
-151.10
-166.80
-191.07
-224.47
-263.58
-301.08
-327.80
-336.20
-323.36
-292.10
-249.42
-203.38
-159.84
-121.01
-86.11
-53.14
-20.53
12.52
46.66
83.03
122.97
166.82
212.34
254.15
284.80
296.84
285.66
251.27
198.48
135.31
70.45
10.92
-39.27
-79.18
-110.06
-134.23
-154.46
-173.81
-195.34
-221.21
-251.19
-281.62
-305.54
-314.90
-303.69
-270.69
-220.20
-160.44
-100.34
-46.44
-1.49
35.07
65.50
92.27
117.35
142.03
166.85
191.35
213.99
232.30
243.69
246.41
240.11
226.44
208.95
192.61
182.74
183.35
195.46
216.10
238.80
255.71
260.63
251.60
231.56
207.18
186.08
174.13
173.81
183.84
199.76
214.99
222.41
216.20
194.09
158.70
117.80
82.25
62.35
63.83
85.39
118.93
152.67
175.78
182.12
171.79
149.67
122.13
93.98
66.98
40.45
13.23
-14.47
-40.57
-62.18
-77.05
-85.07
-88.30
-90.08
-93.49
-100.72
-113.07
-131.21
-155.29
-183.73
-212.00
-231.97
-233.65
-208.99
-156.35
-82.89
-3.09
66.08
111.43
127.73
117.76
88.91
48.88
3.46
-42.82
-84.71
-115.48
-128.82
-122.45
-100.86
-74.67
-56.72
-56.43
-75.86
-109.55
-147.86
-181.57
-205.51
-219.43
-226.71
-231.90
-239.16
-251.83
-272.88
-305.06
-349.88
-406.28
-469.42
-530.90
-581.06
-612.31
-621.87
-612.64
-591.48
-565.96
-541.41
-519.54
-499.22
-478.35
-455.62
-430.87
-404.64
-377.12
-347.69
-315.28
-279.24
-239.92
-198.77
-157.94
-119.39
-84.20
-52.28
-22.79
5.24
32.12
57.25
79.23
96.50
108.17
114.50
116.90
117.31
117.35
117.70
117.88
116.75
113.37
107.84
101.65
97.22
97.00
102.40
113.17
127.58
143.38
158.80
173.44
188.30
205.01
225.05
249.19
277.50
309.56
344.14
378.41
407.30
423.89
421.24
395.15
346.36
280.46
205.40
127.80
50.67
-26.13
-102.79
-176.31
-239.43
-282.97
-300.25
-290.78
-260.79
-220.32
-178.69
-140.94
-107.17
-74.48
-40.06
-3.14
34.96
72.05
106.59
138.03
166.34
191.10
211.08
224.54
229.92
226.71
215.85
199.55
180.81
162.76
148.02
138.09
132.96
131.25
130.64
128.87
124.67
118.44
112.54
110.74
117.06
133.80
159.82
190.01
216.57
231.68
230.57
213.32
184.29
149.79
114.79
80.93
46.47
8.01
-37.46
-91.36
-153.36
-221.83
-293.66
-363.94
-425.78
-471.33
-494.03
-491.01
-464.35
-420.32
-367.16
-312.36
-260.96
-215.12
-175.06
-140.26
-109.90
-82.90
-57.49
-31.11
-0.78
35.93
79.97
130.01
182.33
231.75
273.01
302.40
318.74
323.47
319.71
310.89
299.76
287.97
276.45
265.86
256.74
249.28
242.91
236.25
227.46
214.99
198.28
177.99
155.77
133.76
114.03
98.15
86.94
80.33
77.38
76.50
75.88
73.94
69.86
63.79
56.68
49.86
44.42
40.77
38.72
37.70
37.24
37.14
37.45
38.28
39.50
40.70
41.24
40.50
38.09
34.06
28.94
23.65
19.26
16.44
15.21
14.90
14.41
12.82
9.84
5.95
2.13
-0.44
-0.72
2.08
8.58
18.98
32.73
48.20
62.72
73.08
76.43
71.29
57.95
38.44
15.83
-6.74
-26.82
-42.97
-54.78
-62.44
-66.28
-66.52
-63.39
-57.41
-49.65
-41.69
-35.18
-31.17
-29.76
-30.14
-31.18
-32.15
-33.10
-34.68
-37.62
-42.10
-47.45
-52.41
-55.61
-56.16
-54.01
-49.86
-44.80
-39.82
-35.56
-32.22
-29.71
-27.90
-26.82
-26.71
-27.83
-30.29
-33.85
-37.96
-41.92
-45.24
-47.82
-49.91
-51.91
-54.08
-56.35
-58.18
-58.74
-57.13
-52.71
-45.46
-36.05
-25.88
-16.60
-9.65
-5.69
-4.44
-4.78
-5.38
-5.35
-4.66
-4.04
-4.42
-6.21
-8.85
-10.97
-11.00
-7.83
-1.39
7.32
16.63
24.88
31.07
35.21
38.13
41.05
45.04
50.57
57.44
65.07
72.70
79.55
84.90
88.08
88.69
86.96
83.97
81.48
81.06
82.95
85.45
85.37
79.71
67.39
50.20
32.20
17.86
10.06
9.07
12.74
17.83
21.28
20.94
15.57
4.49
-12.65
-35.71
-63.54
-93.74
-122.91
-147.56
-165.17
-174.69
-176.37
-171.03
-159.27
-141.13
-116.54
-86.24
-52.46
-18.96
9.88
30.45
40.98
41.97
35.76
25.63
14.96
6.65
2.62
3.35
7.66
12.97
16.23
15.03
8.46
-2.84
-17.17
-32.75
-48.27
-62.92
-75.99
-86.53
-93.48
-96.17
-94.83
-90.64
-85.23
-79.88
-74.95
-69.96
-64.18
-57.26
-49.64
-42.29
-36.31
-32.33
-30.31
-29.68
-29.64
-29.55
-29.03
-28.01
-26.56
-24.82
-23.06
-21.64
-20.97
-21.33
-22.71
-24.64
-26.34
-26.97
-26.07
-23.76
-20.72
-17.93
-16.10
-15.47
-15.54
-15.31
-13.49
-8.95
-1.09
9.91
23.07
37.03
50.60
63.39
75.97
89.38
104.36
120.68
136.95
151.25
162.05
169.19
173.96
178.45
184.37
191.96
199.77
205.15
205.34
198.42
183.67
161.53
133.18
100.32
64.89
28.89
-6.09
-39.34
-71.49
-103.99
-138.20
-173.86
-208.33
-237.16
-256.05
-263.55
-262.66
-260.48
-265.27
-282.48
-311.73
-346.30
-375.81
-390.68
-386.00
-363.14
-328.25
-288.86
-250.50
-215.30
-182.62
-150.99
-119.76
-89.44
-60.57
-32.23
-1.68
34.48
78.00
127.15
176.36
218.01
245.44
255.76
250.87
236.35
218.90
203.64
192.72
185.50
179.90
173.94
166.57
157.77
148.08
138.14
128.48
119.54
111.67
105.05
99.75
95.50
91.79
87.89
83.12
77.00
69.47
60.94
52.15
43.94
37.00
31.70
28.12
26.08
25.31
25.52
26.51
28.23
30.82
34.54
39.66
46.18
53.63
61.03
67.06
70.42
70.17
65.95
58.00
47.04
34.10
20.35
7.06
-4.64
-13.88
-20.30
-24.08
-25.84
-26.46
-26.75
-27.38
-28.71
-30.86
-33.70
-36.93
-40.15
-42.99
-45.28
-47.05
-48.59
-50.23
-52.20
-54.51
-56.92
-59.00
-60.27
-60.34
-58.94
-56.04
-51.82
-46.64
-41.03
-35.44
-30.22
-25.45
-21.07
-16.88
-12.71
-8.59
-4.69
-1.33
1.19
2.69
3.29
3.33
3.27
3.53
4.32
5.59
7.14
8.70
10.08
11.23
12.14
12.84
13.31
13.43
13.17
12.53
11.62
10.55
9.34
7.97
6.37
4.53
2.52
0.47
-1.51
-3.47
-5.50
-7.68
-9.95
-11.87
-12.89
-12.49
-10.44
-7.05
-3.00
0.85
3.87
5.81
6.88
7.56
8.23
9.02
9.72
9.92
9.31
7.88
5.90
3.84
2.12
1.05
0.90
2.14
5.41
11.20
19.23
28.13
35.61
39.33
38.10
32.57
25.06
18.40
14.51
13.62
14.47
15.26
14.80
12.82
9.60
5.28
-0.56
-8.62
-19.12
-31.24
-43.16
-52.79
-58.70
-60.60
-59.31
-56.17
-52.37
-48.56
-44.99
-41.68
-38.63
-35.89
-33.42
-31.05
-28.46
-25.42
-21.87
-18.01
-14.23
-10.89
-8.20
-6.13
-4.49
-3.07
-1.78
-0.65
0.22
0.78
1.04
1.13
1.16
1.21
1.28
1.30
1.21
1.01
0.67
0.14
-0.64
-1.72
-3.05
-4.49
-5.85
-7.02
-8.03
-9.01
-10.08
-11.23
-12.20
-12.65
-12.26
-10.92
-8.81
-6.30
-3.84
-1.80
-0.35
0.49
0.83
0.84
0.66
0.36
-0.05
-0.64
-1.41
-2.23
-2.87
-3.05
-2.58
-1.50
-0.06
1.33
2.31
2.72
2.67
2.48
2.46
2.82
3.53
4.35
4.97
5.14
4.74
3.90
2.84
1.79
0.88
0.13
-0.58
-1.43
-2.54
-3.99
-5.77
-7.81
-9.96
-11.99
-13.62
-14.53
-14.56
-13.60
-11.75
-9.17
-6.03
-2.53
1.14
4.73
7.95
10.53
12.26
13.05
13.00
12.33
11.30
10.20
9.21
8.42
7.86
7.45
7.08
6.69
6.27
5.85
5.45
5.07
4.60
3.95
3.01
1.78
0.35
-1.07
-2.32
-3.19
-3.61
-3.55
-3.03
-2.16
-1.04
0.25
1.74
3.53
5.75
8.30
10.78
12.45
12.40
9.86
4.51
-3.37
-12.84
-22.53
-30.94
-36.71
-38.89
-37.10
-31.61
-23.29
-13.46
-3.53
5.23
12.01
16.52
18.91
19.56
18.89
17.32
15.21
12.88
10.67
8.81
7.38
6.35
5.59
4.98
4.48
4.12
3.94
3.90
3.84
3.57
2.91
1.80
0.26
-1.59
-3.58
-5.54
-7.29
-8.74
-9.87
-10.87
-12.01
-13.58
-15.70
-18.23
-20.73
-22.60
-23.39
-22.86
-21.14
-18.52
-15.36
-11.89
-8.24
-4.56
-1.02
2.09
4.54
6.21
7.23
7.85
8.34
8.78
9.09
9.07
8.61
7.77
6.81
6.07
5.80
6.10
6.91
8.03
9.27
10.43
11.35
11.84
11.77
11.07
9.76
7.98
5.86
3.57
1.22
-1.11
-3.30
-5.29
-7.07
-8.75
-10.46
-12.37
-14.47
-16.55
-18.21
-18.98
-18.50
-16.73
-13.91
-10.51
-7.01
-3.76
-0.89
1.66
3.99
6.13
7.99
9.35
10.01
9.90
9.22
8.34
7.66
7.42
7.60
7.93
8.11
8.01
7.72
7.53
7.65
8.07
8.46
8.44
7.72
6.32
4.50
2.63
0.98
-0.40
-1.60
-2.77
-4.00
-5.29
-6.68
-8.22
-10.00
-12.06
-14.25
-16.29
-17.76
-18.21
-17.40
-15.32
-12.28
-8.80
-5.34
-2.28
0.30
2.47
4.38
6.06
7.44
8.37
8.77
8.69
8.38
8.13
8.13
8.39
8.70
8.75
8.36
7.54
6.54
5.68
5.19
5.09
5.20
5.16
4.72
3.78
2.44
0.95
-0.44
-1.54
-2.32
-2.84
-3.25
-3.77
-4.65
-6.13
-8.33
-11.11
-14.14
-16.86
-18.68
-19.14
-18.04
-15.48
-11.85
-7.62
-3.30
0.74
4.28
7.23
9.55
11.27
12.43
13.08
13.31
13.19
12.75
12.06
11.15
10.14
9.14
8.29
7.61
7.07
6.57
5.99
5.35
4.70
4.06
3.38
2.51
1.24
-0.46
-2.48
-4.52
-6.25
-7.45
-8.13
-8.43
-8.70
-9.25
-10.37
-12.20
-14.63
-17.29
-19.59
-20.91
-20.76
-19.04
-16.00
-12.18
-8.15
-4.34
-0.92
2.07
4.67
6.87
8.55
9.56
9.86
9.50
8.71
7.83
7.14
6.83
6.91
7.27
7.76
8.26
8.67
8.94
9.02
8.89
8.56
8.11
7.64
7.18
6.67
6.02
5.12
3.93
2.56
1.10
-0.39
-1.96
-3.70
-5.70
-7.98
-10.47
-13.03
-15.51
-17.73
-19.46
-20.43
-20.41
-19.29
-17.15
-14.23
-10.90
-7.54
-4.44
-1.77
0.43
2.20
3.65
4.90
5.98
6.92
7.65
8.10
8.21
8.00
7.53
6.98
6.47
6.15
6.09
6.31
6.78
7.44
8.16
8.74
8.99
8.70
7.75
6.23
4.36
2.48
0.84
-0.44
-1.48
-2.53
-3.81
-5.48
-7.55
-9.98
-12.70
-15.59
-18.47
-21.01
-22.72
-23.11
-21.90
-19.11
-15.10
-10.49
-5.92
-1.92
1.27
3.66
5.42
6.77
7.84
8.61
9.03
9.07
8.79
8.38
8.08
8.06
8.37
8.94
9.61
10.25
10.80
11.20
11.43
11.47
11.30
10.99
10.63
10.27
9.89
9.34
8.43
7.02
5.18
3.12
1.15
-0.52
-1.79
-2.81
-3.78
-4.93
-6.35
-8.06
-9.97
-11.90
-13.61
-14.78
-15.09
-14.29
-12.29
-9.20
-5.39
-1.33
2.53
5.88
8.58
10.69
12.32
13.56
14.47
15.05
15.39
15.67
16.11
16.85
17.74
18.27
17.74
15.40
10.89
4.33
-3.57
-11.70
-18.75
-23.54
-25.30
-23.77
-19.34
-12.93
-5.76
0.92
6.18
9.53
10.99
10.92
9.88
8.39
6.83
5.36
3.98
2.48
0.65
-1.71
-4.63
-7.98
-11.52
-14.87
-17.64
-19.46
-19.99
-19.13
-16.95
-13.83
-10.26
-6.77
-3.70
-1.15
0.95
2.76
4.36
5.68
6.57
6.91
6.73
6.20
5.58
5.11
4.90
4.94
5.15
5.43
5.73
6.06
6.39
6.67
6.81
6.74
6.47
6.03
5.58
5.18
4.89
4.60
4.19
3.49
2.45
1.10
-0.46
-2.13
-3.75
-5.28
-6.70
-8.06
-9.53
-11.25
-13.27
-15.53
-17.76
-19.53
-20.37
-19.90
-18.02
-14.92
-11.05
-6.96
-3.16
0.04
2.50
4.25
5.40
6.10
6.46
6.62
6.69
6.76
6.87
6.95
6.96
6.88
6.78
6.78
7.01
7.49
8.09
8.59
8.78
8.54
7.87
6.96
5.99
5.13
4.47
3.99
3.59
3.09
2.33
1.17
-0.39
-2.24
-4.21
-6.09
-7.80
-9.32
-10.72
-12.04
-13.31
-14.52
-15.69
-16.82
-17.85
-18.59
-18.72
-17.86
-15.76
-12.46
-8.35
-4.05
-0.21
2.77
4.79
6.02
6.76
7.25
7.62
7.91
8.14
8.32
8.54
8.81
9.12
9.39
9.52
9.49
9.35
9.22
9.20
9.30
9.42
9.40
9.09
8.42
7.40
6.15
4.79
3.42
2.14
1.01
0.11
-0.55
-1.04
-1.53
-2.24
-3.34
-4.87
-6.71
-8.64
-10.44
-12.00
-13.35
-14.46
-15.21
-15.32
-14.41
-12.17
-8.60
-4.07
0.81
5.31
8.95
11.64
13.61
15.25
16.90
18.62
20.24
21.51
22.27
22.59
22.72
22.95
23.50
24.42
25.61
26.98
28.44
29.91
31.30
32.44
33.08
32.97
31.98
30.14
27.64
24.72
21.56
18.33
15.11
11.96
8.94
6.05
3.20
0.21
-3.14
-7.00
-11.32
-15.87
-20.31
-24.35
-27.81
-30.64
-32.84
-34.36
-35.09
-34.91
-33.77
-31.74
-29.03
-25.95
-22.80
-19.85
-17.26
-15.11
-13.36
-11.93
-10.67
-9.51
-8.39
-7.39
-6.57
-5.95
-5.46
-4.99
-4.40
-3.62
-2.70
-1.75
-0.87
-0.14
0.44
0.88
1.15
1.19
0.91
0.24
-0.81
-2.18
-3.73
-5.33
-6.89
-8.37
-9.77
-11.16
-12.64
-14.33
-16.27
-18.35
-20.33
-21.85
-22.54
-22.18
-20.77
-18.51
-15.72
-12.76
-9.94
-7.47
-5.38
-3.61
-1.93
-0.14
1.86
3.98
6.00
7.62
8.74
9.45
10.05
10.81
11.89
13.37
15.41
18.33
22.59
28.37
35.18
41.88
47.21
50.77
53.81
59.19
70.40
89.90
117.71
151.12
185.58
216.33
239.71
253.50
256.45
247.27
224.61
187.58
136.88
75.45
8.09
-60.38
-127.04
-191.79
-256.21
-320.99
-383.43
-436.71
-471.81
-481.19
-462.26
-418.58
-358.12
-289.93
-221.05
-155.60
-96.15
-45.64
-8.08
12.73
15.54
3.23
-17.80
-40.32
-59.34
-73.82
-85.81
-98.18
-111.82
-124.46
-131.51
-128.22
-111.97
-83.38
-45.95
-4.44
36.96
75.94
112.22
146.77
180.35
212.51
241.23
263.72
277.79
282.97
280.91
274.53
266.55
258.15
248.45
235.20
216.35
191.36
161.54
129.42
97.13
65.18
32.03
-5.08
-48.84
-100.81
-160.76
-226.44
-293.54
-355.85
-405.97
-436.82
-443.67
-425.73
-386.68
-333.39
-273.47
-212.77
-154.21
-98.25
-44.65
5.87
51.16
88.53
116.43
135.47
148.13
157.44
165.29
171.64
174.79
172.94
165.69
154.72
143.18
134.21
129.45
128.52
129.43
129.87
128.35
124.66
119.67
114.63
110.44
107.36
105.03
102.81
100.13
96.80
92.97
89.01
85.32
82.21
79.76
77.87
76.29
74.69
72.73
70.16
66.81
62.57
57.43
51.42
44.65
37.35
29.83
22.45
15.53
9.30
3.85
-0.89
-5.05
-8.76
-12.07
-14.96
-17.38
-19.35
-20.95
-22.36
-23.85
-25.65
-27.93
-30.74
-33.99
-37.47
-40.95
-44.17
-46.92
-49.02
-50.39
-51.03
-51.00
-50.46
-49.67
-49.05
-49.07
-50.28
-53.05
-57.44
-63.03
-69.03
-74.38
-78.03
-79.20
-77.54
-73.05
-66.10
-57.21
-47.07
-36.42
-25.97
-16.31
-7.80
-0.54
5.62
10.98
15.85
20.42
24.72
28.61
31.86
34.31
35.89
36.61
36.56
35.76
34.14
31.61
28.20
24.10
19.69
15.36
11.40
7.87
4.65
1.61
-1.34
-4.18
-6.95
-9.73
-12.75
-16.11
-19.75
-23.22
-25.88
-27.07
-26.42
-24.03
-20.38
-16.13
-11.85
-7.90
-4.42
-1.39
1.20
3.33
4.95
6.02
6.59
6.75
6.61
6.28
5.83
5.34
4.91
4.59
4.36
4.09
3.55
2.56
1.06
-0.86
-2.94
-4.89
-6.48
-7.60
-8.28
-8.65
-8.93
-9.37
-10.20
-11.56
-13.31
-14.98
-15.85
-15.20
-12.69
-8.58
-3.82
0.30
2.59
2.38
-0.23
-4.43
-8.96
-12.53
-14.09
-13.13
-9.71
-4.44
1.73
7.79
12.93
16.72
19.22
20.76
21.78
22.61
23.39
24.14
24.78
25.20
25.36
25.20
24.68
23.80
22.53
20.95
19.17
17.36
15.60
13.83
11.85
9.29
5.80
1.25
-4.18
-9.93
-15.20
-19.23
-21.47
-21.74
-20.21
-17.21
-13.22
-8.70
-4.10
0.16
3.77
6.50
8.29
9.16
9.27
8.81
7.98
7.01
6.08
5.32
4.76
4.34
3.98
3.63
3.27
2.87
2.35
1.47
-0.06
-2.55
-6.16
-10.82
-16.19
-21.71
-26.69
-30.48
-32.67
-33.11
-32.03
-29.90
-27.25
-24.58
-22.24
-20.45
-19.33
-18.93
-19.12
-19.62
-19.94
-19.46
-17.65
-14.18
-9.17
-3.06
3.47
9.75
15.26
19.65
22.77
24.61
25.28
25.00
24.09
22.86
21.58
20.34
19.11
17.83
16.50
15.23
14.23
13.68
13.65
13.99
14.45
14.70
14.54
13.88
12.78
11.33
9.68
7.87
5.93
3.86
1.76
-0.21
-1.88
-3.17
-4.17
-5.15
-6.40
-8.10
-10.31
-12.84
-15.37
-17.52
-18.85
-18.95
-17.47
-14.27
-9.43
-3.37
3.20
9.52
14.95
19.24
22.52
25.18
27.66
30.21
32.66
34.62
35.53
35.14
33.58
31.49
29.73
29.08
29.95
32.28
35.69
39.80
44.47
49.98
56.83
65.38
75.53
86.46
96.73
104.72
109.01
108.70
103.66
94.50
82.60
69.93
58.68
50.72
46.75
45.88
45.69
43.03
35.37
21.85
3.66
-16.55
-35.95
-52.83
-67.12
-79.88
-92.17
-103.94
-113.81
-119.50
-119.20
-112.61
-101.12
-86.96
-72.17
-57.75
-43.56
-28.70
-12.19
6.71
28.41
52.81
78.97
104.71
126.65
140.90
144.33
135.65
115.70
86.69
50.96
9.77
-36.91
-89.52
-147.37
-207.12
-262.71
-306.52
-331.78
-335.13
-318.11
-286.53
-248.14
-209.69
-174.73
-143.26
-113.39
-83.81
-55.55
-31.99
-17.22
-13.46
-19.49
-30.67
-40.81
-44.63
-39.75
-27.27
-10.70
5.53
17.20
20.75
13.55
-5.35
-33.87
-66.08
-93.20
-106.54
-101.36
-79.15
-46.78
-12.86
16.54
40.19
60.71
81.41
103.16
123.40
137.65
142.28
136.60
123.63
109.27
100.53
103.42
120.59
149.55
182.44
208.00
215.68
200.29
164.26
116.40
67.78
26.99
-2.67
-22.66
-36.21
-45.79
-52.21
-55.98
-59.18
-65.46
-77.72
-95.28
-112.68
-121.54
-114.82
-90.71
-53.74
-12.63
24.04
51.20
67.94
75.48
74.66
65.07
46.51
21.64
-3.02
-19.17
-21.20
-9.93
6.70
17.11
11.98
-10.42
-42.88
-72.56
-87.42
-82.67
-63.54
-42.68
-33.85
-44.98
-74.03
-110.15
-139.41
-151.88
-146.50
-130.89
-116.68
-113.30
-123.39
-142.17
-160.55
-169.63
-164.15
-143.73
-111.77
-73.17
-32.21
8.75
49.31
90.46
133.42
178.58
224.39
267.16
301.65
322.46
325.39
308.41
272.09
219.90
158.44
96.79
44.71
9.82
-4.97
-2.70
8.75
20.04
24.32
19.39
7.28
-8.43
-25.42
-43.44
-62.38
-79.25
-87.09
-77.51
-45.69
4.84
61.58
107.44
127.83
116.69
77.87
21.95
-39.40
-97.61
-148.21
-188.70
-216.20
-226.91
-217.62
-187.68
-139.62
-78.49
-10.31
58.71
121.82
171.16
198.50
197.43
166.14
109.31
37.42
-36.27
-99.86
-145.95
-172.30
-180.64
-174.45
-157.71
-134.46
-108.96
-85.39
-67.14
-56.12
-52.28
-53.60
-56.40
-56.12
-48.27
-29.74
0.01
38.22
79.08
115.27
140.17
149.88
144.15
125.56
97.82
64.36
27.95
-8.67
-42.28
-69.53
-87.96
-96.78
-97.03
-90.87
-80.34
-66.66
-50.34
-31.76
-11.84
7.81
25.28
38.93
47.76
51.57
50.81
46.41
39.84
32.96
27.60
24.92
24.60
24.75
22.67
16.18
4.68
-10.53
-26.86
-41.57
-52.75
-59.58
-62.08
-60.77
-56.46
-50.26
-43.32
-36.39
-29.20
-20.40
-8.38
7.46
25.68
42.92
55.17
59.71
56.28
47.08
35.56
24.84
16.83
12.19
10.85
12.65
17.27
23.92
31.21
37.43
41.19
41.93
40.06
36.61
32.58
28.61
24.90
21.34
17.76
14.11
10.52
7.22
4.49
2.49
1.18
0.27
-0.65
-1.85
-3.28
-4.53
-5.07
-4.57
-3.24
-1.79
-1.14
-1.87
-3.92
-6.52
-8.57
-9.16
-8.01
-5.62
-2.92
-0.91
-0.32
-1.55
-4.79
-10.08
-17.04
-24.63
-31.17
-34.81
-34.53
-30.74
-25.35
-20.78
-18.75
-19.20
-20.39
-19.80
-15.60
-7.64
2.51
12.17
18.70
20.37
16.83
9.16
-0.55
-9.87
-16.87
-20.88
-22.68
-24.19
-27.56
-34.02
-43.21
-53.25
-61.46
-65.43
-63.86
-56.87
-45.75
-32.31
-18.22
-4.63
7.85
19.04
28.74
36.77
42.94
47.36
50.65
53.73
57.59
62.73
69.01
75.73
82.08
87.59
92.27
96.35
99.60
100.79
97.62
87.39
68.36
41.05
9.02
-21.57
-43.67
-51.70
-43.56
-21.47
8.86
40.24
66.25
82.98
89.51
87.28
78.88
67.08
54.14
41.72
31.06
22.99
17.97
15.94
16.32
18.14
20.28
21.75
21.89
20.48
17.78
14.40
11.11
8.61
7.25
7.00
7.40
7.80
7.57
6.30
4.03
1.20
-1.37
-2.78
-2.30
0.29
4.68
10.21
16.22
22.53
29.59
38.25
49.00
61.28
72.98
80.76
81.08
71.38
50.66
19.31
-21.35
-69.14
-120.45
-169.29
-207.47
-226.37
-220.18
-188.79
-138.56
-80.17
-24.50
21.13
54.49
77.19
91.90
100.35
103.19
101.48
97.98
97.22
103.58
118.91
141.15
165.12
184.66
195.62
197.48
193.24
187.89
186.04
190.09
199.49
211.32
221.83
228.06
229.23
227.02
224.83
226.12
232.57
242.96
253.43
258.98
255.63
242.04
219.94
193.07
165.32
139.09
114.67
90.67
65.18
36.91
5.72
-27.53
-61.46
-94.86
-127.02
-157.84
-187.74
-217.39
-247.46
-278.79
-312.63
-350.50
-393.46
-440.50
-487.34
-526.35
-548.50
-546.69
-518.91
-469.45
-407.38
-342.98
-283.97
-233.52
-190.88
-153.62
-120.13
-90.56
-66.24
-48.07
-35.35
-25.72
-16.34
-5.34
7.28
19.65
29.15
33.79
33.32
29.37
24.71
21.88
22.07
24.66
27.75
29.28
28.27
25.31
22.34
21.67
24.89
32.36
43.35
56.69
71.49
87.26
103.43
118.68
130.50
135.62
131.10
115.53
89.87
57.26
22.01
-11.69
-40.99
-64.69
-82.98
-96.77
-106.93
-113.89
-117.56
-117.55
-113.50
-105.37
-93.62
-79.08
-62.81
-45.90
-29.25
-13.58
0.64
13.07
23.50
31.75
37.75
41.53
43.24
43.16
41.68
39.13
35.81
31.93
27.71
23.38
19.26
15.57
12.44
9.83
7.60
5.68
4.09
2.96
2.33
2.05
1.70
0.75
-1.22
-4.32
-8.22
-12.36
-16.04
-18.71
-20.08
-20.24
-19.62
-18.95
-19.06
-20.48
-23.13
-26.15
-28.09
-27.47
-23.48
-16.39
-7.57
1.09
7.94
12.15
13.92
14.07
13.50
12.70
11.69
10.23
8.21
5.92
3.95
2.91
3.15
4.47
6.25
7.70
8.21
7.63
6.36
5.06
4.39
4.63
5.54
6.51
6.81
5.95
3.92
1.20
-1.51
-3.54
-4.48
-4.28
-3.12
-1.23
1.11
3.67
6.20
8.51
10.49
12.13
13.52
14.64
15.42
15.69
15.33
14.40
13.11
11.79
10.66
9.75
8.94
8.11
7.22
6.32
5.53
4.87
4.31
3.84
3.51
3.44
3.68
4.12
4.43
4.27
3.44
2.11
0.82
0.33
1.28
3.97
8.15
13.22
18.50
23.49
28.09
32.58
37.38
42.82
48.90
55.24
61.18
66.13
69.76
72.23
74.23
76.84
81.21
88.33
98.68
112.08
127.78
144.87
162.74
181.46
201.88
225.16
252.00
281.54
310.67
334.20
346.12
341.56
318.63
279.32
228.55
172.19
114.74
58.16
2.10
-54.54
-112.34
-170.87
-229.38
-287.40
-344.50
-399.19
-447.89
-485.39
-506.94
-510.90
-499.97
-480.01
-457.11
-434.47
-411.31
-384.30
-350.33
-308.84
-262.02
-213.27
-164.85
-116.50
-65.85
-10.44
49.82
111.13
165.99
205.10
220.51
208.73
172.24
118.90
59.04
1.87
-47.25
-87.47
-120.80
-149.30
-172.99
-189.84
-197.68
-196.70
-190.43
-184.38
-182.85
-186.11
-189.61
-186.27
-170.60
-142.23
-106.82
-73.42
-49.95
-39.10
-37.18
-36.54
-29.89
-14.04
9.14
34.59
57.40
75.51
90.23
104.75
121.50
140.33
158.39
171.78
177.72
176.03
169.19
160.96
154.64
151.69
151.45
151.92
150.99
147.64
142.29
136.39
131.41
128.09
126.27
125.32
124.88
125.19
126.94
130.68
136.46
143.82
152.26
161.73
172.68
185.57
200.23
215.21
227.76
234.54
232.44
219.53
195.55
161.64
119.66
71.59
19.26
-35.23
-89.05
-138.49
-179.62
-209.23
-225.67
-229.17
-221.55
-205.66
-184.87
-162.85
-143.39
-129.93
-124.90
-129.00
-140.76
-156.71
-171.88
-180.83
-178.54
-161.25
-127.19
-76.80
-12.57
61.91
142.46
224.09
300.52
364.01
406.72
423.52
414.92
388.05
354.46
325.55
307.49
299.01
292.91
280.33
255.06
215.97
166.39
111.91
58.20
9.62
-31.32
-64.11
-90.08
-111.62
-130.72
-147.95
-162.29
-172.27
-177.61
-179.59
-180.14
-180.19
-178.61
-173.40
-164.55
-156.43
-157.44
-176.25
-216.34
-272.13
-329.79
-372.01
-384.75
-362.18
-307.72
-231.40
-146.16
-64.26
4.44
53.11
78.58
81.85
68.50
47.77
30.13
23.76
31.80
51.74
77.12
100.77
117.32
124.41
122.01
111.32
94.02
72.28
49.00
27.76
11.98
3.87
3.57
9.17
17.55
25.58
30.65
30.74
24.51
11.61
-6.91
-28.60
-50.16
-68.69
-82.81
-92.84
-99.72
-103.38
-101.49
-89.42
-62.07
-16.60
44.96
114.77
180.50
228.83
249.41
238.22
198.91
141.42
78.57
21.87
-21.72
-50.60
-66.84
-73.91
-74.49
-69.75
-60.18
-46.81
-31.78
-17.93
-7.50
-1.09
2.77
6.68
12.90
22.00
32.40
41.30
45.99
45.24
39.83
32.08
24.67
19.42
16.55
14.86
12.39
7.33
-1.12
-12.59
-25.72
-38.68
-49.92
-58.64
-64.91
-69.40
-72.92
-75.89
-78.16
-79.13
-78.15
-74.88
-69.43
-62.33
-54.17
-45.58
-37.33
-30.47
-26.38
-26.41
-31.51
-41.75
-56.19
-73.01
-89.91
-104.61
-115.38
-121.44
-123.08
-121.65
-119.15
-117.77
-119.32
-124.76
-133.74
-144.72
-155.50
-164.17
-170.28
-175.55
-183.74
-199.19
-224.57
-258.81
-296.41
-328.96
-348.19
-349.14
-331.86
-300.83
-262.48
-222.24
-182.81
-144.03
-104.03
-60.96
-14.15
35.30
84.80
130.90
170.22
200.32
220.32
231.08
234.69
233.48
229.17
222.64
214.38
205.17
196.40
189.57
185.42
183.17
180.81
176.19
168.26
157.81
147.09
138.70
134.25
133.65
135.22
136.63
136.07
132.86
127.64
121.70
116.19
111.57
107.44
102.89
97.05
89.66
81.23
72.74
65.27
59.44
55.20
52.02
49.18
46.13
42.73
39.15
35.78
32.92
30.58
28.48
26.08
22.71
17.64
10.23
-0.04
-13.25
-28.80
-45.20
-60.30
-71.80
-78.00
-78.27
-73.15
-63.95
-52.19
-39.14
-25.85
-13.36
-2.79
4.82
9.18
11.18
12.75
16.19
23.08
33.58
46.39
59.34
70.24
77.54
80.56
79.28
74.30
66.58
57.41
48.05
39.27
30.83
21.61
10.26
-3.79
-19.42
-33.97
-44.10
-47.29
-42.87
-32.30
-18.37
-3.97
8.99
19.93
29.17
37.14
43.68
48.02
48.98
45.59
37.39
24.39
7.15
-13.30
-35.27
-56.24
-73.25
-83.74
-86.78
-84.00
-79.46
-78.39
-85.13
-101.24
-124.66
-150.25
-171.55
-182.69
-179.93
-162.27
-131.29
-90.50
-44.71
0.81
41.15
72.59
93.32
103.60
105.16
100.27
90.65
76.72
57.74
32.30
-0.43
-39.65
-82.33
-123.35
-156.48
-175.99
-178.31
-163.02
-132.90
-92.85
-48.27
-3.45
39.22
79.01
115.78
148.83
176.34
195.83
205.12
203.51
192.23
174.09
152.48
130.30
109.36
90.47
73.97
60.27
49.96
43.53
40.93
41.27
43.08
44.82
45.41
44.52
42.48
39.97
37.55
35.44
33.40
31.00
27.84
23.77
18.99
13.92
9.11
5.08
2.22
0.65
0.22
0.48
0.86
0.83
0.12
-1.20
-2.74
-4.03
-4.74
-4.76
-4.31
-3.70
-3.19
-2.93
-2.87
-2.92
-2.98
-3.03
-3.07
-3.19
-3.41
-3.72
-4.04
-4.29
-4.37
-4.27
-4.01
-3.63
-3.24
-2.89
-2.57
-2.25
-1.82
-1.32
-0.86
-0.64
-0.81
-1.33
-1.98
-2.41
-2.39
-1.95
-1.31
-0.81
-0.66
-0.76
-0.84
-0.58
0.07
0.93
1.62
1.85
1.57
1.01
0.54
0.40
0.68
1.17
1.62
1.79
1.67
1.34
1.03
0.89
0.94
1.08
1.09
0.85
0.35
-0.22
-0.64
-0.70
-0.35
0.30
1.06
1.72
2.17
2.35
2.30
2.08
1.77
1.46
1.26
1.23
1.37
1.62
1.88
2.10
2.28
2.45
2.61
2.74
2.76
2.61
2.29
1.86
1.44
1.16
1.11
1.32
1.74
2.25
2.68
2.83
2.61
2.08
1.39
0.78
0.38
0.16
-0.01
-0.26
-0.65
-1.11
-1.50
-1.71
-1.69
-1.49
-1.19
-0.91
-0.73
-0.70
-0.82
-1.05
-1.30
-1.47
-1.54
-1.56
-1.65
-1.93
-2.44
-3.06
-3.60
-3.84
-3.64
-3.10
-2.45
-2.00
-1.93
-2.23
-2.63
-2.81
-2.53
-1.82
-0.94
-0.34
-0.30
-0.87
-1.80
-2.74
-3.35
-3.52
-3.35
-3.03
-2.75
-2.59
-2.51
-2.42
-2.22
-1.88
-1.40
-0.87
-0.40
-0.10
-0.02
-0.17
-0.46
-0.81
-1.18
-1.59
-2.11
-2.78
-3.52
-4.17
-4.53
-4.48
-4.04
-3.40
-2.85
-2.59
-2.69
-3.01
-3.32
-3.41
-3.24
-2.90
-2.62
-2.57
-2.79
-3.19
-3.61
-3.90
-4.06
-4.15
-4.28
-4.45
-4.64
-4.72
-4.61
-4.35
-4.04
-3.88
-4.04
-4.57
-5.31
-5.94
-6.10
-5.48
-4.04
-1.98
0.30
2.35
3.86
4.76
5.19
5.37
5.47
5.53
5.47
5.19
4.71
4.12
3.56
3.09
2.63
2.03
1.11
-0.17
-1.71
-3.27
-4.62
-5.62
-6.30
-6.76
-7.14
-7.50
-7.82
-8.00
-7.94
-7.57
-6.85
-5.82
-4.57
-3.19
-1.82
-0.55
0.49
1.22
1.60
1.68
1.61
1.53
1.60
1.83
2.19
2.54
2.79
2.89
2.86
2.77
2.64
2.45
2.11
1.57
0.87
0.15
-0.45
-0.77
-0.80
-0.60
-0.35
-0.24
-0.35
-0.67
-1.07
-1.43
-1.64
-1.67
-1.55
-1.33
-1.11
-0.96
-0.94
-1.12
-1.50
-2.00
-2.50
-2.89
-3.10
-3.15
-3.12
-3.12
-3.22
-3.41
-3.59
-3.62
-3.41
-2.92
-2.29
-1.74
-1.47
-1.56
-1.91
-2.25
-2.34
-2.11
-1.65
-1.22
-1.07
-1.25
-1.66
-2.08
-2.31
-2.31
-2.18
-2.06
-2.08
-2.23
-2.41
-2.47
-2.29
-1.81
-1.08
-0.22
0.59
1.16
1.34
1.12
0.60
0.01
-0.44
-0.62
-0.52
-0.21
0.19
0.60
0.92
1.06
0.98
0.64
0.11
-0.52
-1.04
-1.29
-1.17
-0.73
-0.10
0.52
0.95
1.12
1.09
0.99
0.95
0.98
1.01
0.87
0.45
-0.22
-0.97
-1.54
-1.74
-1.57
-1.21
-0.85
-0.67
-0.66
-0.76
-0.81
-0.77
-0.66
-0.58
-0.63
-0.87
-1.24
-1.62
-1.84
-1.85
-1.66
-1.38
-1.17
-1.12
-1.23
-1.41
-1.55
-1.54
-1.39
-1.17
-0.97
-0.84
-0.74
-0.62
-0.44
-0.20
0.04
0.16
0.05
-0.33
-0.93
-1.60
-2.12
-2.33
-2.20
-1.90
-1.72
-1.92
-2.62
-3.71
-4.87
-5.80
-6.30
-6.37
-6.18
-5.92
-5.73
-5.64
-5.60
-5.51
-5.31
-4.99
-4.52
-3.95
-3.34
-2.77
-2.36
-2.21
-2.36
-2.80
-3.48
-4.27
-5.06
-5.73
-6.19
-6.40
-6.35
-6.09
-5.67
-5.17
-4.62
-4.14
-3.77
-3.56
-3.50
-3.49
-3.38
-3.09
-2.61
-2.05
-1.57
-1.29
-1.26
-1.48
-1.88
-2.37
-2.85
-3.20
-3.29
-3.02
-2.40
-1.51
-0.59
0.13
0.49
0.46
0.11
-0.39
-0.91
-1.36
-1.72
-1.99
-2.16
-2.19
-2.07
-1.86
-1.66
-1.63
-1.89
-2.45
-3.17
-3.85
-4.31
-4.46
-4.38
-4.22
-4.18
-4.31
-4.55
-4.72
-4.66
-4.37
-3.96
-3.65
-3.57
-3.67
-3.72
-3.48
-2.82
-1.89
-0.94
-0.19
0.33
0.83
1.58
2.75
4.20
5.61
6.58
6.90
6.61
5.94
5.16
4.49
4.04
3.81
3.78
3.87
3.97
3.92
3.58
2.88
1.85
0.64
-0.53
-1.45
-2.00
-2.20
-2.17
-2.09
-2.15
-2.45
-2.96
-3.57
-4.11
-4.44
-4.45
-4.14
-3.50
-2.58
-1.44
-0.20
0.96
1.83
2.30
2.38
2.20
1.94
1.70
1.51
1.24
0.78
0.06
-0.86
-1.82
-2.66
-3.30
-3.70
-3.90
-3.94
-3.85
-3.63
-3.31
-2.92
-2.51
-2.15
-1.86
-1.61
-1.36
-1.07
-0.76
-0.52
-0.46
-0.64
-1.05
-1.58
-2.02
-2.22
-2.14
-1.90
-1.73
-1.82
-2.20
-2.68
-2.97
-2.84
-2.24
-1.38
-0.56
-0.06
0.04
-0.15
-0.41
-0.57
-0.60
-0.56
-0.54
-0.58
-0.67
-0.74
-0.73
-0.61
-0.38
-0.08
0.28
0.70
1.14
1.57
1.88
1.93
1.63
0.98
0.15
-0.59
-0.96
-0.83
-0.36
0.13
0.24
-0.16
-0.95
-1.75
-2.21
-2.20
-1.90
-1.59
-1.49
-1.59
-1.68
-1.52
-1.06
-0.45
0.04
0.25
0.21
0.13
0.20
0.50
0.88
1.12
1.09
0.82
0.52
0.44
0.69
1.19
1.76
2.19
2.38
2.38
2.29
2.22
2.22
2.24
2.23
2.17
2.10
2.05
1.99
1.82
1.37
0.51
-0.72
-2.09
-3.24
-3.78
-3.50
-2.45
-0.96
0.54
1.69
2.34
2.56
2.54
2.38
2.14
1.75
1.16
0.41
-0.31
-0.82
-1.00
-0.89
-0.68
-0.53
-0.55
-0.67
-0.77
-0.72
-0.50
-0.16
0.22
0.58
0.86
1.04
1.09
0.98
0.72
0.41
0.18
0.12
0.22
0.38
0.50
0.53
0.52
0.60
0.86
1.29
1.80
2.19
2.35
2.20
1.82
1.29
0.73
0.21
-0.21
-0.51
-0.68
-0.74
-0.70
-0.59
-0.43
-0.23
-0.00
0.24
0.44
0.49
0.33
-0.09
-0.65
-1.12
-1.23
-0.84
0.02
1.10
2.08
2.73
2.96
2.91
2.73
2.51
2.19
1.67
0.89
0.01
-0.75
-1.13
-1.05
-0.57
0.06
0.63
0.98
1.08
1.01
0.86
0.67
0.42
0.04
-0.53
-1.25
-2.02
-2.66
-3.02
-3.00
-2.65
-2.12
-1.55
-1.01
-0.47
0.18
1.03
2.00
2.89
3.42
3.42
2.91
2.08
1.24
0.60
0.24
0.09
0.02
-0.06
-0.16
-0.24
-0.24
-0.18
-0.11
-0.11
-0.17
-0.21
-0.11
0.19
0.66
1.15
1.50
1.57
1.36
1.00
0.65
0.49
0.59
0.89
1.26
1.57
1.76
1.82
1.76
1.59
1.27
0.80
0.18
-0.49
-1.08
-1.42
-1.39
-1.02
-0.44
0.07
0.24
-0.06
-0.71
-1.43
-1.85
-1.76
-1.22
-0.51
0.03
0.21
0.03
-0.27
-0.44
-0.36
-0.07
0.28
0.55
0.66
0.68
0.73
0.90
1.19
1.49
1.68
1.67
1.48
1.18
0.88
0.67
0.52
0.39
0.24
0.09
-0.00
0.03
0.15
0.30
0.41
0.44
0.47
0.55
0.72
0.86
0.78
0.35
-0.46
-1.53
-2.65
-3.66
-4.47
-5.06
-5.45
-5.59
-5.45
-5.00
-4.32
-3.54
-2.79
-2.20
-1.84
-1.72
-1.75
-1.86
-1.98
-2.05
-2.06
-2.04
-2.05
-2.12
-2.26
-2.40
-2.45
-2.34
-2.04
-1.60
-1.16
-0.84
-0.74
-0.86
-1.10
-1.32
-1.35
-1.10
-0.59
0.02
0.51
0.71
0.51
-0.02
-0.68
-1.25
-1.56
-1.59
-1.47
-1.38
-1.51
-1.86
-2.27
-2.49
-2.31
-1.75
-1.05
-0.55
-0.49
-0.85
-1.35
-1.65
-1.56
-1.17
-0.76
-0.66
-1.02
-1.70
-2.40
-2.82
-2.86
-2.62
-2.28
-1.97
-1.71
-1.47
-1.22
-1.00
-0.90
-0.95
-1.08
-1.18
-1.10
-0.82
-0.43
-0.04
0.23
0.36
0.39
0.29
0.01
-0.49
-1.18
-1.91
-2.48
-2.76
-2.72
-2.47
-2.13
-1.81
-1.50
-1.17
-0.83
-0.53
-0.34
-0.32
-0.43
-0.57
-0.67
-0.68
-0.69
-0.75
-0.93
-1.19
-1.43
-1.55
-1.48
-1.25
-0.98
-0.84
-0.91
-1.24
-1.76
-2.31
-2.73
-2.87
-2.64
-2.05
-1.23
-0.38
0.28
0.58
0.46
0.05
-0.42
-0.74
-0.79
-0.62
-0.38
-0.26
-0.36
-0.63
-0.96
-1.19
-1.21
-1.01
-0.60
-0.07
0.48
1.00
1.41
1.68
1.81
1.80
1.67
1.47
1.27
1.17
1.23
1.44
1.70
1.84
1.70
1.24
0.52
-0.29
-1.10
-1.87
-2.60
-3.24
-3.67
-3.70
-3.27
-2.49
-1.65
-1.06
-0.93
-1.19
-1.64
-1.98
-2.11
-2.03
-1.90
-1.86
-1.89
-1.97
-2.02
-2.07
-2.18
-2.41
-2.72
-2.97
-3.01
-2.82
-2.56
-2.49
-2.91
-3.89
-5.28
-6.68
-7.60
-7.64
-6.60
-4.58
-1.86
1.09
3.79
5.83
6.94
7.06
6.34
5.06
3.55
2.15
1.05
0.39
0.17
0.29
0.59
0.84
0.88
0.64
0.20
-0.26
-0.53
-0.53
-0.38
-0.41
-0.96
-2.19
-3.95
-5.81
-7.22
-7.77
-7.30
-6.00
-4.20
-2.25
-0.40
1.24
2.63
3.73
4.49
4.89
4.92
4.65
4.16
3.56
2.94
2.36
1.84
1.35
0.81
0.19
-0.52
-1.25
-1.90
-2.33
-2.44
-2.19
-1.68
-1.08
-0.61
-0.42
-0.55
-0.91
-1.35
-1.74
-1.99
-2.10
-2.13
-2.13
-2.18
-2.36
-2.73
-3.30
-3.95
-4.44
-4.49
-3.93
-2.78
-1.32
0.07
1.07
1.54
1.58
1.40
1.17
0.91
0.56
0.02
-0.66
-1.29
-1.67
-1.67
-1.39
-1.05
-0.90
-1.04
-1.41
-1.77
-1.95
-1.90
-1.65
-1.31
-0.94
-0.52
-0.05
0.41
0.72
0.77
0.52
0.07
-0.42
-0.79
-1.01
-1.12
-1.19
-1.21
-1.14
-0.93
-0.63
-0.35
-0.24
-0.36
-0.58
-0.72
-0.59
-0.12
0.60
1.35
1.89
2.10
1.98
1.61
1.13
0.66
0.30
0.07
-0.03
-0.07
-0.09
-0.16
-0.32
-0.59
-0.94
-1.26
-1.45
-1.37
-1.00
-0.39
0.32
0.93
1.28
1.32
1.09
0.70
0.32
0.05
-0.06
-0.03
0.06
0.11
0.03
-0.24
-0.65
-1.09
-1.43
-1.54
-1.37
-0.99
-0.56
-0.23
-0.10
-0.11
-0.14
-0.07
0.15
0.48
0.77
0.90
0.84
0.66
0.45
0.26
0.07
-0.18
-0.58
-1.10
-1.63
-1.98
-1.98
-1.55
-0.73
0.32
1.39
2.24
2.69
2.71
2.34
1.72
1.03
0.43
0.00
-0.24
-0.33
-0.35
-0.31
-0.24
-0.11
0.05
0.19
0.25
0.17
0.01
-0.12
-0.08
0.23
0.76
1.34
1.77
1.92
1.85
1.71
1.68
1.85
2.12
2.31
2.23
1.78
1.07
0.25
-0.48
-0.99
-1.27
-1.39
-1.40
-1.34
-1.24
-1.11
-0.94
-0.73
-0.50
-0.24
-0.01
0.13
0.14
0.01
-0.18
-0.34
-0.36
-0.22
0.02
0.26
0.41
0.51
0.62
0.81
1.07
1.32
1.41
1.28
0.94
0.55
0.27
0.19
0.30
0.50
0.67
0.78
0.86
0.99
1.19
1.43
1.58
1.54
1.26
0.80
0.32
-0.01
-0.09
0.06
0.31
0.53
0.65
0.68
0.64
0.60
0.56
0.46
0.27
-0.02
-0.34
-0.54
-0.53
-0.27
0.10
0.43
0.54
0.40
0.07
-0.28
-0.48
-0.42
-0.05
0.56
1.28
1.93
2.32
2.33
1.96
1.39
0.89
0.70
0.88
1.32
1.74
1.92
1.76
1.37
0.96
0.72
0.69
0.77
0.81
0.72
0.55
0.39
0.36
0.49
0.70
0.91
1.05
1.09
1.08
1.05
0.99
0.88
0.68
0.41
0.13
-0.06
-0.10
-0.01
0.19
0.40
0.55
0.62
0.61
0.57
0.55
0.61
0.75
0.95
1.17
1.36
1.47
1.47
1.29
0.86
0.21
-0.59
-1.34
-1.83
-1.95
-1.70
-1.26
-0.77
-0.38
-0.14
-0.08
-0.19
-0.52
-1.02
-1.57
-1.99
-2.06
-1.70
-1.02
-0.32
0.12
0.15
-0.15
-0.50
-0.63
-0.39
0.14
0.74
1.20
1.44
1.57
1.78
2.25
2.96
3.74
4.38
4.77
4.91
4.94
4.94
4.87
4.64
4.17
3.47
2.71
2.08
1.70
1.58
1.57
1.48
1.17
0.57
-0.23
-1.07
-1.75
-2.12
-2.15
-1.95
-1.70
-1.59
-1.65
-1.75
-1.66
-1.22
-0.47
0.38
1.01
1.21
0.99
0.55
0.18
0.08
0.30
0.72
1.18
1.56
1.80
1.90
1.85
1.64
1.30
0.91
0.60
0.52
0.73
1.17
1.67
2.03
2.11
1.88
1.43
0.89
0.36
-0.11
-0.48
-0.70
-0.70
-0.42
0.14
0.87
1.58
2.05
2.12
1.78
1.18
0.54
0.03
-0.21
-0.19
0.02
0.36
0.80
1.27
1.72
2.08
2.23
2.11
1.70
1.09
0.41
-0.17
-0.53
-0.61
-0.45
-0.17
0.12
0.31
0.40
0.48
0.63
0.88
1.19
1.47
1.69
1.89
2.16
2.55
2.98
3.31
3.39
3.20
2.87
2.53
2.25
1.95
1.47
0.70
-0.31
-1.33
-2.12
-2.53
-2.61
-2.51
-2.41
-2.38
-2.39
-2.30
-1.98
-1.36
-0.50
0.40
1.13
1.49
1.44
1.07
0.59
0.21
-0.02
-0.16
-0.36
-0.74
-1.23
-1.62
-1.68
-1.25
-0.44
0.52
1.37
1.96
2.33
2.59
2.81
2.93
2.82
2.38
1.69
0.99
0.54
0.49
0.75
0.99
0.87
0.21
-0.94
-2.30
-3.51
-4.31
-4.59
-4.39
-3.86
-3.15
-2.39
-1.66
-1.00
-0.40
0.14
0.61
0.97
1.18
1.24
1.21
1.18
1.22
1.35
1.52
1.62
1.54
1.27
0.85
0.46
0.27
0.41
0.87
1.51
2.13
2.55
2.73
2.72
2.63
2.58
2.60
2.68
2.77
2.89
3.01
3.07
2.95
2.49
1.69
0.65
-0.36
-1.09
-1.41
-1.36
-1.13
-0.90
-0.81
-0.85
-0.95
-1.02
-1.03
-1.01
-1.01
-1.06
-1.15
-1.22
-1.15
-0.85
-0.30
0.37
0.90
1.04
0.65
-0.16
-1.05
-1.66
-1.75
-1.38
-0.75
-0.18
0.20
0.43
0.65
0.95
1.27
1.45
1.32
0.94
0.48
0.21
0.30
0.67
1.09
1.28
1.11
0.64
0.10
-0.25
-0.27
0.02
0.41
0.68
0.64
0.25
-0.33
-0.82
-0.94
-0.58
0.17
1.02
1.68
1.95
1.83
1.50
1.21
1.09
1.13
1.19
1.08
0.69
0.04
-0.74
-1.47
-2.00
-2.25
-2.20
-1.90
-1.48
-1.05
-0.75
-0.64
-0.69
-0.84
-0.93
-0.88
-0.63
-0.26
0.12
0.40
0.58
0.70
0.82
0.99
1.16
1.26
1.20
1.01
0.76
0.58
0.57
0.75
1.09
1.48
1.78
1.83
1.53
0.85
-0.09
-1.05
-1.79
-2.15
-2.13
-1.87
-1.59
-1.49
-1.63
-1.95
-2.28
-2.45
-2.35
-1.98
-1.42
-0.82
-0.33
-0.05
0.05
0.04
0.05
0.19
0.50
0.89
1.22
1.28
0.96
0.29
-0.58
-1.37
-1.80
-1.76
-1.30
-0.66
-0.08
0.25
0.37
0.41
0.53
0.79
1.15
1.46
1.65
1.77
1.90
2.13
2.40
2.61
2.58
2.30
1.86
1.48
1.29
1.31
1.42
1.46
1.33
1.05
0.68
0.30
-0.10
-0.58
-1.15
-1.73
-2.14
-2.20
-1.87
-1.25
-0.57
-0.09
0.03
-0.25
-0.82
-1.54
-2.22
-2.72
-2.91
-2.77
-2.37
-1.82
-1.29
-0.91
-0.70
-0.58
-0.41
-0.10
0.40
1.04
1.70
2.21
2.43
2.26
1.76
1.09
0.52
0.24
0.34
0.69
1.04
1.19
1.09
0.90
0.85
1.05
1.47
1.84
1.89
1.47
0.71
-0.10
-0.63
-0.72
-0.50
-0.25
-0.28
-0.76
-1.57
-2.44
-3.06
-3.26
-3.06
-2.62
-2.14
-1.71
-1.37
-1.06
-0.76
-0.50
-0.34
-0.35
-0.53
-0.76
-0.89
-0.75
-0.32
0.32
0.96
1.39
1.47
1.18
0.65
0.05
-0.45
-0.77
-0.93
-1.01
-1.11
-1.23
-1.39
-1.56
-1.73
-1.87
-1.90
-1.73
-1.25
-0.42
0.69
1.85
2.80
3.31
3.30
2.84
2.12
1.35
0.71
0.27
0.07
0.06
0.22
0.48
0.83
1.17
1.43
1.52
1.37
0.95
0.34
-0.30
-0.78
-0.89
-0.58
0.06
0.80
1.41
1.75
1.82
1.77
1.73
1.81
1.95
1.99
1.78
1.26
0.53
-0.22
-0.74
-0.92
-0.71
-0.22
0.44
1.16
1.85
2.43
2.83
2.99
2.82
2.36
1.65
0.82
0.01
-0.62
-0.93
-0.88
-0.54
-0.12
0.19
0.23
-0.03
-0.42
-0.74
-0.86
-0.82
-0.73
-0.72
-0.79
-0.84
-0.74
-0.45
-0.10
0.10
0.01
-0.38
-0.94
-1.44
-1.71
-1.69
-1.45
-1.10
-0.79
-0.63
-0.68
-0.92
-1.23
-1.43
-1.35
-0.90
-0.14
0.82
1.76
2.53
3.00
3.07
2.69
1.91
0.88
-0.17
-0.98
-1.42
-1.49
-1.36
-1.23
-1.21
-1.28
-1.31
-1.24
-1.04
-0.80
-0.61
-0.52
-0.51
-0.48
-0.38
-0.20
-0.00
0.13
0.14
0.04
-0.09
-0.18
-0.17
-0.04
0.19
0.45
0.71
0.95
1.15
1.26
1.20
0.98
0.67
0.43
0.40
0.62
0.96
1.15
0.93
0.23
-0.81
-1.92
-2.83
-3.41
-3.70
-3.79
-3.74
-3.53
-3.10
-2.44
-1.66
-0.93
-0.41
-0.18
-0.24
-0.52
-0.90
-1.27
-1.54
-1.69
-1.72
-1.66
-1.53
-1.33
-1.02
-0.57
0.01
0.63
1.14
1.46
1.58
1.63
1.75
2.05
2.47
2.91
3.25
3.49
3.75
4.08
4.44
4.65
4.43
3.59
2.20
0.53
-0.99
-2.01
-2.36
-2.09
-1.41
-0.56
0.23
0.79
1.05
1.04
0.86
0.66
0.50
0.42
0.32
0.11
-0.26
-0.77
-1.30
-1.75
-2.01
-2.06
-1.85
-1.35
-0.58
0.37
1.32
2.06
2.43
2.37
1.97
1.41
0.87
0.43
0.13
-0.12
-0.42
-0.90
-1.63
-2.59
-3.61
-4.47
-4.95
-4.91
-4.41
-3.59
-2.59
-1.57
-0.59
0.32
1.06
1.51
1.64
1.48
1.20
0.98
0.94
1.05
1.22
1.31
1.27
1.13
0.97
0.90
0.97
1.16
1.42
1.68
1.85
1.90
1.86
1.79
1.81
1.94
2.16
