1674719813.00
64.000000
-0.00
-0.00
-0.00
-0.00
-0.00
-0.00
-0.00
-0.00
-0.00
-0.00
0.00
0.01
0.01
-0.00
-0.03
-0.05
-0.05
0.00
0.13
0.36
0.66
1.01
1.37
1.72
2.06
2.40
2.79
3.24
3.80
4.42
5.06
5.66
6.20
6.68
7.15
7.68
8.31
9.14
10.09
11.04
11.88
12.56
13.14
13.76
14.65
15.96
17.91
20.32
22.90
25.38
27.58
29.57
31.68
34.32
37.81
42.54
48.15
54.10
59.83
64.97
69.58
74.14
79.34
85.71
93.76
103.00
112.62
121.73
129.77
136.75
143.30
150.75
157.77
166.64
177.95
191.79
206.97
220.57
228.25
225.36
208.53
176.87
132.76
80.05
23.07
-34.94
-92.44
-149.16
-205.23
-260.37
-313.74
-363.86
-409.81
-450.87
-486.45
-515.66
-537.12
-549.08
-549.78
-538.15
-513.95
-478.38
-433.54
-382.04
-326.52
-269.23
-211.94
-155.97
-102.38
-52.04
-5.85
35.40
71.17
101.22
125.68
144.93
159.54
170.10
177.22
181.38
183.02
182.53
180.27
176.56
171.61
165.59
158.63
150.94
142.79
134.61
126.80
119.65
113.14
106.90
100.42
93.21
85.20
76.81
68.91
62.45
58.01
55.36
53.47
50.92
46.54
40.04
32.27
24.97
20.04
18.60
20.21
22.93
24.03
21.15
13.51
2.31
-9.65
-19.34
-24.77
-26.09
-25.58
-26.36
-31.36
-42.20
-58.86
-79.52
-100.20
-114.84
-116.25
-98.46
-60.11
-6.99
48.37
90.68
107.70
96.42
64.59
26.39
-4.57
-21.53
-26.15
-25.34
-26.01
-31.19
-39.37
-46.87
-50.45
-48.36
-39.91
-24.89
-2.98
25.09
56.89
88.77
116.66
137.84
151.89
160.47
165.70
168.38
166.95
158.24
139.47
110.30
73.86
35.93
2.73
-21.55
-36.09
-43.24
-46.43
-47.99
-48.16
-45.69
-39.50
-30.20
-20.25
-12.86
-10.17
-12.15
-16.52
-20.02
-19.71
-14.50
-5.45
4.78
13.08
17.23
16.61
12.54
7.67
4.66
5.00
8.33
12.54
14.55
11.89
3.42
-9.87
-25.13
-38.98
-48.97
-54.70
-57.77
-60.82
-65.57
-73.41
-83.70
-94.45
-103.54
-109.41
-110.55
-105.21
-92.54
-71.84
-45.93
-21.22
-5.66
-5.25
-20.60
-45.30
-68.41
-79.10
-71.64
-47.12
-13.90
19.15
47.03
69.72
89.83
108.19
121.73
124.43
111.18
81.57
42.11
3.80
-22.91
-33.39
-30.72
-23.15
-19.84
-26.27
-43.23
-67.84
-95.60
-122.51
-144.96
-159.38
-161.43
-149.65
-125.39
-93.01
-58.99
-27.90
-2.71
16.34
31.05
43.65
55.26
65.89
74.94
81.23
85.82
89.74
93.48
96.61
98.15
96.95
92.56
85.55
77.35
69.81
63.99
60.19
57.87
56.08
53.76
50.35
45.88
40.92
36.47
33.07
30.87
29.53
28.48
27.05
25.12
22.31
18.82
15.11
11.51
8.46
5.70
3.03
0.27
-2.61
-5.58
-8.40
-10.83
-12.77
-14.25
-15.38
-16.14
-16.51
-16.42
-15.88
-14.96
-13.84
-12.79
-12.07
-11.77
-11.73
-11.60
-11.00
-9.69
-7.64
-5.08
-2.37
0.12
2.27
4.30
6.71
10.05
14.63
20.40
26.84
33.27
38.80
42.93
45.55
47.12
48.52
50.94
55.60
63.25
73.51
84.05
91.27
91.20
81.49
62.54
37.63
11.77
-10.19
-25.28
-33.41
-36.17
-35.94
-34.43
-32.99
-32.84
-35.39
-41.96
-53.05
-68.44
-84.80
-98.43
-106.12
-107.06
-102.56
-94.69
-84.51
-67.80
-41.44
-5.09
37.12
79.37
115.99
143.62
160.69
166.23
159.22
138.93
108.24
69.86
29.37
-7.21
-35.42
-54.19
-65.91
-75.28
-87.50
-106.90
-137.23
-175.29
-217.65
-258.24
-288.60
-299.28
-282.70
-235.92
-163.04
-75.97
8.99
75.83
114.99
125.66
114.15
89.62
61.13
35.35
16.96
10.43
19.86
47.98
93.08
147.67
194.62
216.47
206.75
174.47
136.32
105.57
86.57
75.28
64.32
47.57
25.93
4.06
-12.73
-21.84
-24.01
-22.53
-21.77
-26.18
-39.58
-59.51
-84.64
-112.59
-139.21
-157.81
-161.23
-145.11
-111.19
-67.53
-25.40
3.64
13.30
3.79
-15.41
-31.69
-35.18
-25.61
-10.19
4.17
14.58
23.37
33.94
47.84
63.05
75.11
79.85
75.92
65.74
51.76
38.82
29.85
25.16
22.35
17.55
7.30
-9.69
-27.49
-43.60
-55.35
-61.17
-61.03
-56.90
-51.93
-49.21
-50.30
-54.64
-60.85
-66.22
-68.87
-68.10
-64.88
-61.21
-59.08
-59.74
-63.49
-70.67
-80.53
-91.32
-99.85
-101.84
-93.25
-72.36
-41.26
-5.68
26.65
49.74
61.29
63.01
58.96
53.11
47.58
42.40
36.70
29.87
22.74
16.86
13.35
12.22
12.42
12.55
11.53
9.37
6.92
5.90
7.69
12.78
20.65
30.03
39.37
47.49
53.90
58.70
61.80
64.18
66.21
67.62
67.79
66.03
62.06
56.78
50.07
42.43
34.41
26.43
18.53
10.74
3.07
-4.09
-10.22
-14.87
-17.61
-18.23
-16.72
-13.41
-8.62
-2.72
4.24
12.15
20.68
29.31
36.20
41.14
43.84
45.39
45.49
44.70
43.69
43.02
42.70
42.25
41.19
39.00
35.53
31.06
26.49
21.58
18.00
16.93
18.61
22.26
25.83
26.43
21.51
10.38
-5.00
-22.21
-38.35
-51.61
-61.85
-70.17
-78.28
-87.45
-97.30
-107.38
-116.11
-120.70
-117.47
-103.93
-78.09
-41.61
0.32
40.64
72.96
93.67
102.31
100.61
90.93
75.48
55.99
34.53
13.77
-3.68
-16.13
-23.40
-26.59
-27.24
-26.36
-24.75
-22.82
-20.97
-19.58
-18.55
-17.23
-14.72
-10.50
-4.80
0.77
4.33
4.45
0.80
-6.05
-15.37
-26.80
-40.14
-54.51
-67.71
-76.07
-76.32
-67.36
-51.39
-33.43
-18.98
-11.27
-9.66
-10.19
-7.44
2.06
18.04
37.06
54.48
67.22
74.96
79.59
83.34
87.71
92.23
95.11
94.97
91.74
87.32
84.30
84.40
83.97
78.81
65.69
44.13
16.42
-13.76
-41.80
-63.46
-75.82
-78.26
-72.24
-61.11
-50.47
-42.62
-38.60
-37.91
-39.30
-41.18
-42.50
-42.62
-41.75
-40.58
-39.69
-39.91
-39.85
-38.88
-36.25
-30.88
-21.16
-5.67
15.93
42.39
70.34
95.50
113.76
122.88
122.83
115.50
103.44
88.91
73.42
57.70
42.40
28.29
16.59
8.64
5.54
7.81
14.86
24.81
34.47
40.29
39.50
31.46
18.17
3.46
-8.56
-15.19
-15.97
-12.49
-7.23
-2.34
1.09
3.02
3.81
3.63
2.13
-1.38
-7.50
-16.33
-27.19
-38.65
-48.81
-55.87
-58.76
-57.53
-53.40
-48.32
-44.29
-42.63
-43.63
-46.53
-50.07
-53.15
-55.40
-57.35
-60.04
-64.43
-70.73
-78.24
-85.75
-92.10
-96.50
-98.26
-96.38
-89.29
-75.20
-53.32
-25.13
5.05
31.40
48.93
55.95
54.80
50.54
48.07
49.57
53.51
56.06
53.89
46.60
37.01
29.06
25.25
25.13
25.92
24.40
18.99
10.64
1.88
-5.24
-11.32
-19.44
-33.14
-53.47
-77.66
-100.05
-114.57
-117.37
-108.77
-93.79
-79.93
-73.39
-75.82
-84.03
-91.94
-93.17
-82.75
-58.62
-23.13
17.50
55.10
82.13
93.22
85.87
60.70
22.02
-17.91
-44.63
-49.60
-36.49
-15.81
4.05
20.28
33.58
46.28
59.40
71.14
78.04
77.41
69.42
57.00
44.03
32.04
23.19
17.71
13.38
6.83
-4.64
-21.60
-42.90
-63.19
-81.94
-98.04
-109.02
-111.28
-101.40
-78.01
-43.18
-2.63
35.86
64.98
82.06
88.84
89.59
88.30
86.80
84.77
81.04
75.38
68.42
62.46
59.36
59.36
61.14
62.97
64.00
64.63
65.52
65.52
61.87
50.66
29.01
-2.60
-39.93
-76.62
-107.27
-129.45
-143.58
-150.56
-149.72
-138.48
-114.36
-77.92
-34.02
8.96
42.87
63.49
71.61
71.84
69.92
70.19
74.03
80.86
89.31
98.70
108.78
118.58
125.34
124.82
113.14
87.90
52.85
14.91
-18.16
-40.95
-52.23
-54.86
-53.46
-51.85
-51.43
-51.59
-51.38
-50.67
-50.87
-53.30
-58.95
-67.99
-80.01
-94.08
-108.47
-120.58
-125.77
-120.38
-102.25
-72.71
-36.65
-0.94
28.46
48.91
60.93
67.56
72.23
77.27
83.16
89.46
95.39
102.10
110.52
119.83
126.98
127.20
116.41
93.37
61.32
26.94
-2.32
-21.54
-30.02
-30.64
-27.48
-23.73
-20.71
-18.41
-16.66
-16.08
-17.82
-22.56
-29.17
-35.15
-38.05
-36.66
-31.97
-26.73
-23.97
-25.26
-30.27
-37.00
-43.29
-47.65
-49.04
-46.21
-37.42
-22.03
-1.04
20.21
34.36
35.45
21.14
-5.74
-38.30
-68.49
-91.65
-106.76
-115.54
-119.45
-117.19
-105.10
-79.47
-40.65
6.14
50.96
84.71
102.96
107.57
105.79
106.04
113.70
124.47
134.27
132.19
110.13
66.66
7.63
-55.20
-108.54
-141.10
-147.78
-130.01
-94.90
-50.19
-0.34
48.99
91.01
118.25
128.98
127.40
120.00
110.61
100.32
88.27
72.59
55.00
34.86
13.31
-7.80
-26.61
-42.14
-53.47
-59.97
-61.79
-58.05
-49.54
-37.45
-24.10
-12.46
-5.28
-3.58
-6.56
-12.39
-18.86
-24.59
-28.42
-29.95
-29.37
-26.97
-22.67
-16.31
-8.11
1.18
10.20
18.04
24.11
27.92
29.11
27.61
23.91
19.06
14.46
11.29
10.46
11.98
14.58
16.35
15.69
12.36
7.40
2.34
-1.63
-3.69
-3.51
-1.34
2.14
6.08
9.61
11.41
9.06
-0.35
-17.40
-39.26
-60.33
-75.55
-82.82
-82.33
-75.61
-65.72
-56.70
-54.18
-59.32
-70.70
-85.78
-101.23
-112.48
-115.05
-106.74
-88.45
-59.87
-24.85
9.84
34.21
38.23
17.69
-18.51
-50.85
-62.02
-44.04
2.27
70.15
146.99
215.68
262.27
280.15
269.28
234.30
182.69
115.21
43.34
-17.84
-57.26
-71.42
-63.00
-39.46
-10.92
12.76
25.31
26.74
19.91
8.57
-3.88
-15.12
-24.96
-34.27
-43.47
-52.03
-58.66
-63.99
-69.46
-75.66
-79.40
-77.11
-67.12
-51.24
-33.77
-19.08
-10.73
-9.55
-13.41
-18.40
-21.21
-20.56
-17.32
-12.62
-6.82
0.03
8.46
18.81
31.44
45.85
60.75
71.65
75.94
73.91
67.72
59.95
51.04
40.01
25.54
7.64
-11.00
-24.86
-29.56
-25.97
-20.30
-21.68
-35.36
-59.40
-85.90
-105.03
-108.83
-95.33
-69.18
-34.18
-0.36
22.75
34.55
42.14
52.56
67.82
86.14
98.15
95.48
74.49
38.62
-3.23
-41.14
-68.50
-79.12
-68.97
-40.94
-6.54
20.71
34.87
39.46
41.89
47.48
57.18
67.68
75.60
77.26
72.86
65.61
59.13
55.06
52.43
48.36
39.13
21.35
-7.05
-42.46
-77.46
-103.62
-114.91
-109.78
-91.18
-65.03
-37.81
-14.05
5.10
20.03
30.65
35.36
31.96
19.75
1.07
-18.98
-34.45
-40.76
-36.92
-25.57
-11.25
2.00
12.14
18.83
22.29
22.24
18.41
11.24
2.74
-3.71
-4.82
0.86
12.07
25.30
36.50
42.85
43.41
38.56
28.98
14.97
-3.18
-24.04
-44.30
-59.08
-63.39
-54.28
-32.13
-0.83
33.54
64.61
87.51
99.74
101.17
93.48
79.47
62.34
45.24
30.71
20.27
14.17
11.48
10.74
10.56
10.16
9.47
8.73
8.03
7.12
5.66
3.58
1.29
-0.52
-1.39
-1.69
-2.58
-5.46
-11.19
-19.28
-28.01
-35.09
-38.76
-38.58
-35.69
-32.15
-30.05
-30.46
-33.05
-36.42
-38.81
-38.98
-36.65
-32.42
-27.37
-22.48
-18.40
-15.51
-13.96
-13.81
-15.02
-17.23
-19.82
-22.01
-23.13
-22.87
-21.23
-18.43
-14.70
-10.26
-5.43
-0.71
3.24
5.84
6.89
6.67
5.89
5.41
5.84
7.32
9.57
12.05
14.34
16.26
17.92
19.52
21.11
22.49
23.25
22.93
21.25
18.23
14.22
9.76
5.46
1.83
-0.78
-2.33
-3.07
-3.50
-4.13
-5.21
-6.62
-7.83
-8.16
-7.11
-4.69
-1.43
1.69
3.60
3.48
1.03
-3.51
-9.50
-16.10
-22.51
-28.05
-32.09
-34.08
-33.49
-30.09
-24.12
-16.45
-8.37
-1.22
4.22
7.99
10.81
13.59
16.79
20.13
22.71
23.65
22.64
20.26
17.69
16.09
16.00
17.04
18.26
18.73
18.02
16.28
14.06
11.94
10.24
8.90
7.57
5.91
3.86
1.63
-0.41
-2.01
-3.09
-3.78
-4.40
-5.48
-7.35
-9.91
-12.71
-15.17
-16.93
-17.94
-18.42
-18.81
-20.23
-23.45
-28.46
-34.60
-40.97
-46.88
-51.90
-55.76
-58.34
-60.95
-64.47
-68.64
-72.26
-74.14
-73.85
-71.67
-68.37
-64.90
-64.30
-68.46
-77.00
-87.68
-98.14
-107.07
-114.34
-120.37
-125.63
-133.08
-144.06
-157.12
-168.77
-175.84
-177.08
-173.14
-165.51
-138.65
-87.00
-18.83
47.90
98.33
127.44
138.25
137.99
135.22
136.97
143.63
152.07
158.31
159.69
155.96
149.87
144.20
141.06
140.64
138.88
131.23
115.15
91.07
62.22
33.43
9.70
-4.92
-8.89
-5.12
1.52
8.55
13.62
16.09
16.94
17.75
19.75
22.69
24.43
22.97
18.12
11.56
6.13
3.92
5.05
7.95
10.37
10.50
7.92
3.78
0.03
-1.64
-0.74
1.79
4.34
5.48
4.55
1.79
-1.86
-5.16
-7.20
-8.00
-8.38
-9.21
-10.91
-13.23
-15.68
-17.59
-17.74
-15.29
-10.52
-4.79
0.58
4.87
8.22
10.75
13.08
17.11
24.24
34.00
43.87
51.28
54.69
54.34
50.65
45.68
44.17
50.73
67.17
91.17
118.21
142.64
159.18
162.09
141.63
97.53
41.93
-7.83
-41.62
-59.26
-69.45
-80.32
-98.86
-127.88
-164.69
-204.96
-240.43
-265.74
-276.34
-269.48
-233.57
-172.26
-102.36
-41.44
2.33
30.42
47.50
57.80
63.02
63.68
58.19
47.51
36.39
30.16
31.40
38.65
49.94
61.72
71.80
77.23
76.38
69.62
58.30
43.78
27.11
9.77
-6.66
-20.74
-32.79
-43.22
-51.53
-56.73
-58.28
-56.80
-53.61
-50.39
-48.15
-47.38
-47.11
-45.34
-40.19
-30.95
-18.61
-5.36
6.19
14.14
17.54
16.92
14.00
11.07
10.06
11.94
16.48
22.43
28.31
32.96
36.01
37.86
39.29
41.02
43.36
46.10
48.66
50.38
50.87
49.99
47.88
44.90
41.51
38.10
34.88
31.89
29.08
26.56
24.43
22.59
20.63
17.95
13.93
8.19
0.86
-7.34
-15.10
-21.31
-25.53
-28.19
-29.65
-30.05
-29.44
-27.85
-25.47
-22.07
-17.49
-11.63
-4.67
3.98
14.99
28.39
43.32
58.34
72.76
85.81
96.43
102.85
104.60
102.09
96.14
87.70
77.94
69.12
62.85
59.44
57.25
55.57
54.11
52.45
49.59
37.59
12.37
-24.29
-61.74
-98.31
-134.21
-168.54
-197.85
-218.16
-226.04
-218.56
-195.26
-158.72
-114.67
-68.32
-24.09
14.50
44.97
66.17
79.04
85.37
86.79
83.73
77.16
67.92
56.49
42.99
27.81
12.46
-0.79
-9.65
-12.91
-9.82
-0.92
11.59
24.17
33.18
36.49
34.47
29.40
23.70
19.44
17.42
17.11
17.31
17.00
16.04
15.58
17.07
20.72
25.99
31.88
37.40
41.72
44.21
42.08
34.25
22.43
9.24
-2.96
-12.79
-19.36
-22.02
-20.94
-18.00
-16.25
-18.12
-26.90
-44.41
-69.18
-96.06
-117.76
-127.44
-121.46
-98.96
-58.11
-5.35
47.91
89.26
109.47
104.94
78.10
35.23
-13.93
-57.68
-85.48
-93.32
-85.90
-72.02
-58.79
-49.90
-47.65
-53.99
-65.50
-78.93
-90.77
-96.89
-93.29
-77.76
-43.91
1.63
46.88
82.48
104.83
115.96
119.98
119.50
114.04
100.91
76.74
42.55
4.38
-30.00
-53.84
-63.51
-59.12
-44.13
-23.68
-3.83
11.46
20.76
23.60
19.57
8.18
-10.13
-33.08
-56.76
-75.61
-84.08
-79.08
-61.93
-38.16
-15.40
-0.44
3.53
-1.83
-11.08
-16.76
-12.03
6.20
35.51
67.90
91.89
96.50
76.28
33.94
-20.07
-71.16
-106.40
-119.06
-110.33
-87.80
-61.46
-39.53
-25.83
-21.94
-25.31
-29.75
-27.19
-9.63
25.54
72.93
122.31
164.22
193.26
208.11
209.16
196.72
170.83
132.98
88.05
44.16
9.72
-10.23
-15.76
-11.66
-4.22
0.73
0.35
-5.00
-12.64
-19.21
-22.20
-20.77
-15.77
-9.26
-3.79
-1.79
-4.90
-13.52
-26.88
-42.33
-56.51
-66.72
-71.82
-72.24
-69.49
-65.05
-59.80
-54.04
-47.88
-41.79
-36.71
-33.78
-33.87
-37.02
-41.87
-45.62
-44.73
-36.24
-19.27
4.10
29.06
50.62
64.63
69.72
67.53
61.60
55.36
50.78
47.75
44.78
40.17
33.37
25.40
17.98
12.05
7.14
1.93
-4.83
-13.17
-21.65
-27.57
-28.18
-22.41
-12.05
-0.95
6.96
9.34
5.17
-5.23
-19.96
-36.02
-50.19
-59.98
-63.42
-58.71
-45.13
-20.83
9.43
35.81
50.01
50.25
41.49
29.15
17.63
9.64
5.74
5.03
5.57
5.06
2.31
-4.48
-15.02
-26.02
-33.35
-34.50
-29.60
-20.11
-9.10
4.06
19.19
35.04
49.73
61.11
67.37
67.70
61.94
52.03
41.17
31.68
24.87
21.03
19.38
18.53
17.01
14.05
10.00
6.00
2.85
0.97
0.28
0.25
0.08
-0.85
-2.78
-5.34
-7.80
-9.74
-10.98
-11.54
-11.66
-11.65
-11.78
-12.22
-12.91
-13.67
-14.45
-15.25
-16.13
-17.09
-18.04
-18.72
-18.81
-17.97
-16.11
-13.44
-10.45
-7.64
-5.31
-3.51
-2.03
-0.61
0.90
2.43
3.77
4.65
4.92
4.55
3.62
2.20
0.34
-1.89
-4.35
-6.83
-9.09
-10.99
-12.60
-14.09
-15.73
-17.61
-19.65
-21.58
-23.14
-24.20
-24.85
-25.35
-26.01
-27.01
-28.29
-29.64
-30.75
-31.50
-32.00
-32.54
-33.45
-35.01
-37.41
-40.79
-45.07
-49.85
-54.20
-56.70
-55.70
-49.96
-39.32
-25.03
-9.42
4.94
16.11
23.37
27.15
28.70
29.52
30.67
32.60
35.25
38.19
40.82
42.47
42.40
40.49
37.23
33.26
29.10
25.06
21.34
17.98
15.02
12.05
9.27
7.23
5.89
4.45
1.96
-2.04
-7.12
-11.86
-15.00
-14.56
-9.01
0.60
10.65
16.46
14.00
1.34
-20.74
-49.85
-80.49
-105.57
-119.63
-119.74
-105.63
-79.29
-44.38
0.69
47.73
84.77
106.19
114.92
117.98
120.96
125.47
128.78
125.51
109.41
78.72
37.58
-6.74
-47.86
-80.03
-100.15
-108.77
-109.16
-106.19
-102.94
-95.33
-84.91
-73.67
-61.94
-48.69
-32.88
-14.32
5.23
23.10
36.67
42.75
39.96
29.26
14.54
0.88
-6.96
-6.83
-0.29
8.02
11.05
1.78
-24.02
-63.44
-109.41
-155.09
-194.18
-221.89
-235.46
-227.46
-201.61
-167.80
-136.36
-113.88
-100.20
-89.72
-78.02
-63.37
-47.09
-32.51
-20.24
-6.19
11.96
37.85
73.49
117.82
167.66
218.10
262.21
292.97
303.99
290.91
254.32
200.81
142.01
91.24
58.22
44.68
45.51
52.39
58.84
63.63
69.44
79.31
93.17
106.51
112.07
104.58
84.19
57.34
33.71
21.14
22.20
34.01
50.27
64.16
71.04
69.32
61.03
49.46
37.01
24.78
13.44
4.01
-2.53
-5.80
-6.43
-4.22
0.23
4.85
6.57
2.96
-6.65
-21.41
-38.70
-54.31
-60.93
-52.57
-27.71
10.09
54.51
99.04
137.92
167.82
174.10
149.64
100.84
44.63
-4.24
-40.15
-64.39
-81.64
-95.32
-105.40
-107.22
-96.13
-71.98
-40.25
-9.53
11.48
14.92
-2.76
-41.52
-93.07
-145.67
-188.56
-214.64
-220.70
-199.12
-151.90
-92.74
-38.64
1.59
28.46
46.71
60.62
72.55
82.83
88.96
88.66
83.32
74.72
64.91
54.94
44.82
34.40
23.68
11.92
-0.90
-13.50
-24.11
-31.88
-36.27
-38.49
-39.89
-40.97
-41.70
-41.03
-37.31
-29.82
-19.38
-8.34
0.18
4.03
2.83
-2.36
-9.21
-15.01
-18.02
-18.27
-17.52
-18.46
-23.00
-31.20
-41.10
-49.11
-51.37
-45.25
-30.59
-9.98
11.49
27.67
32.88
23.72
0.38
-32.99
-69.25
-100.57
-120.80
-127.24
-120.72
-104.42
-81.99
-56.00
-27.84
1.58
30.07
54.43
71.42
79.54
79.88
75.70
71.15
69.42
71.76
76.17
79.16
77.95
72.08
63.49
55.52
51.71
54.49
64.76
79.70
94.65
105.10
108.51
104.60
94.77
81.28
66.15
51.31
35.40
15.90
-9.37
-41.02
-78.62
-121.62
-169.48
-221.47
-262.40
-276.33
-254.60
-202.76
-136.38
-73.06
-27.36
-7.41
-14.68
-38.54
-67.54
-91.30
-103.00
-100.77
-87.80
-70.53
-51.43
-34.51
-20.59
-9.62
-0.47
7.86
15.70
22.74
28.55
33.55
38.70
46.16
56.20
67.49
77.77
85.04
88.58
89.07
88.41
88.41
90.77
95.32
100.44
103.80
103.51
98.84
90.44
80.15
69.89
61.54
55.75
51.99
48.92
45.09
39.46
31.64
21.87
10.50
-1.98
-15.23
-29.00
-42.93
-56.36
-68.28
-77.50
-83.10
-84.88
-83.46
-80.19
-76.79
-74.75
-75.01
-77.67
-82.17
-87.57
-92.99
-97.86
-102.14
-106.29
-111.07
-117.24
-125.27
-134.97
-145.34
-154.83
-161.75
-165.11
-165.12
-163.24
-161.50
-161.33
-162.61
-163.29
-160.10
-149.96
-131.41
-105.49
-75.54
-46.09
-21.32
-3.74
6.36
10.82
12.94
16.43
24.33
38.31
58.22
82.29
107.73
131.65
151.95
167.66
178.73
185.55
188.74
189.00
186.92
183.01
177.70
171.39
164.79
159.09
155.88
157.42
166.08
183.08
207.55
235.98
263.03
283.11
291.58
285.21
263.37
227.52
179.38
120.49
52.58
-20.86
-92.57
-152.78
-192.93
-206.80
-192.47
-153.80
-98.45
-35.08
29.19
90.86
147.45
193.94
225.55
239.24
233.67
210.50
173.97
129.46
83.53
40.84
1.17
-35.38
-66.39
-89.00
-100.15
-97.96
-93.19
-92.99
-83.59
-61.10
-33.53
-7.32
10.38
14.00
0.98
-26.62
-60.19
-89.13
-107.43
-112.74
-106.02
-92.03
-75.16
-58.70
-44.42
-31.70
-19.94
-10.97
-5.75
-2.53
1.55
11.00
28.13
51.46
77.42
101.23
118.17
125.98
125.95
112.01
84.05
47.45
9.87
-22.54
-47.05
-63.39
-73.33
-78.65
-81.10
-80.59
-77.30
-73.47
-69.39
-65.57
-62.53
-62.39
-66.36
-74.58
-85.25
-97.20
-110.24
-124.33
-139.74
-150.61
-155.09
-153.25
-146.75
-137.88
-129.69
-124.49
-122.02
-119.69
-106.29
-79.54
-47.02
-19.74
-2.79
6.28
13.75
24.95
40.75
57.14
68.40
71.03
66.47
60.00
56.32
56.30
56.43
50.99
34.70
5.80
-31.30
-66.43
-88.07
-89.17
-69.70
-35.68
4.44
43.06
75.51
97.83
107.02
104.60
95.50
84.77
75.16
69.77
67.64
67.70
68.62
69.56
70.47
69.53
66.44
61.87
57.23
53.58
51.54
50.55
49.47
46.96
41.21
30.63
14.38
-6.73
-30.41
-52.87
-70.54
-81.19
-84.92
-84.21
-82.70
-83.52
-87.79
-94.51
-100.98
-104.54
-103.74
-98.80
-91.44
-83.57
-76.44
-70.20
-64.29
-58.08
-51.52
-45.24
-40.03
-36.26
-33.35
-29.93
-24.31
-15.32
-2.93
11.67
26.42
39.35
49.36
56.80
63.35
71.24
82.13
96.24
112.04
126.94
138.51
145.62
148.93
150.44
152.27
155.52
159.72
163.20
164.18
161.69
155.84
147.14
135.55
119.94
98.56
70.42
36.43
-0.22
-35.12
-64.70
-87.83
-106.28
-123.56
-142.93
-165.69
-190.98
-216.58
-240.01
-259.01
-271.37
-274.55
-266.13
-245.27
-214.24
-178.88
-147.08
-125.68
-117.49
-119.77
-125.26
-125.09
-112.05
-83.14
-40.37
10.02
59.26
98.41
120.78
123.75
109.77
85.43
58.86
36.82
22.55
15.44
12.47
10.68
8.77
7.08
6.52
7.41
9.17
11.13
13.51
17.75
26.04
40.10
60.18
84.92
111.93
138.60
162.64
182.02
194.82
199.17
193.69
178.23
154.40
125.48
95.53
68.24
46.15
30.35
20.64
15.98
14.85
15.72
17.26
18.59
19.33
19.27
17.99
14.51
7.44
-4.36
-20.99
-41.12
-62.25
-81.46
-96.41
-105.80
-109.29
-107.01
-99.44
-87.36
-72.01
-54.89
-37.24
-19.56
-1.78
16.54
35.55
54.74
73.12
89.65
103.36
112.94
115.94
108.35
86.16
47.78
-3.70
-60.18
-110.75
-145.82
-160.77
-157.39
-142.56
-123.80
-105.70
-88.89
-71.72
-53.01
-33.59
-15.68
-0.89
10.50
21.44
36.91
60.81
93.08
129.27
162.67
187.25
199.68
197.54
182.54
160.41
139.11
125.56
123.53
132.80
149.47
166.52
171.83
156.59
119.20
64.99
1.81
-63.77
-128.38
-191.83
-256.60
-330.63
-417.44
-512.35
-603.99
-680.24
-732.75
-758.70
-759.91
-707.07
-592.70
-437.69
-279.28
-145.18
-43.76
28.94
78.52
113.56
138.27
150.28
150.14
143.93
141.49
148.06
165.76
193.40
227.98
264.65
293.74
307.39
302.59
281.50
248.83
210.21
170.73
134.59
103.88
76.66
51.24
27.98
8.98
-4.16
-11.43
-14.54
-15.67
-16.70
-19.34
-23.32
-26.35
-25.15
-17.25
-1.91
19.80
45.66
72.71
97.52
117.17
129.80
134.88
133.33
127.47
120.63
116.31
116.91
122.78
132.04
141.37
147.65
149.39
147.49
144.75
144.33
148.12
155.96
165.77
174.60
179.79
179.62
173.11
159.88
140.23
115.64
89.18
64.84
45.63
31.31
17.66
-1.63
-30.98
-69.10
-108.03
-136.22
-144.30
-130.23
-101.07
-70.27
-51.91
-54.89
-80.05
-121.03
-167.91
-211.08
-243.60
-261.52
-262.98
-247.32
-215.09
-168.70
-113.10
-55.42
-3.68
35.51
58.80
66.98
64.10
55.52
45.72
36.87
28.63
19.19
6.69
-9.52
-28.26
-46.89
-62.33
-72.14
-75.25
-72.20
-64.76
-55.18
-45.34
-36.22
-27.84
-19.48
-10.20
0.57
12.67
24.97
35.80
43.45
46.68
45.05
39.00
29.83
19.44
9.90
3.07
0.19
1.79
7.39
15.37
23.24
28.20
27.89
20.81
7.08
-11.19
-30.19
-45.65
-54.66
-56.80
-53.75
-47.95
-41.51
-35.20
-28.08
-18.23
-4.01
14.37
34.20
51.19
61.03
60.20
47.17
23.01
-7.73
-36.44
-54.19
-57.56
-50.15
-38.36
-27.35
-19.15
-13.30
-8.64
-4.30
-0.67
0.97
-1.62
-8.20
-18.35
-31.62
-47.30
-64.43
-80.73
-93.42
-100.19
-99.91
-93.02
-82.14
-70.97
-59.85
-50.18
-42.03
-34.58
-26.96
-18.71
-9.72
-0.54
7.81
13.68
14.23
6.78
-10.20
-35.54
-64.46
-89.12
-101.44
-96.35
-73.92
-39.41
0.18
39.32
76.10
111.68
147.62
182.91
212.99
231.45
233.26
218.14
191.07
160.20
133.32
114.65
103.79
96.82
88.84
76.25
57.92
35.15
10.80
-11.99
-31.08
-46.25
-59.36
-74.04
-94.34
-122.73
-158.63
-197.63
-232.28
-254.32
-257.69
-241.22
-209.32
-170.25
-132.64
-102.02
-79.08
-60.70
-42.95
-24.22
-6.55
5.72
9.09
3.54
-7.05
-17.39
-24.05
-27.45
-31.28
-39.60
-53.66
-70.65
-84.98
-91.01
-85.32
-67.75
-40.91
-8.73
24.71
55.72
81.58
101.19
115.68
128.47
144.05
165.57
192.76
221.41
245.28
259.36
262.39
257.03
247.58
237.13
226.01
212.81
196.88
180.19
167.00
161.24
163.57
170.15
174.14
169.05
151.69
122.68
84.70
40.24
-9.49
-63.59
-119.73
-173.57
-219.97
-255.25
-279.03
-294.14
-304.58
-313.03
-319.44
-321.52
-316.48
-302.80
-280.80
-252.05
-218.36
-181.18
-141.92
-102.30
-64.24
-29.22
2.42
31.25
57.73
81.06
99.01
109.02
110.26
104.76
97.08
92.08
92.49
97.75
104.92
111.04
115.12
118.65
124.26
133.56
145.70
157.56
165.39
166.58
160.91
150.44
138.23
126.93
117.73
110.32
103.53
96.17
87.74
78.48
68.73
58.12
45.26
28.27
6.05
-20.57
-48.55
-73.67
-92.04
-101.64
-102.72
-97.30
-88.18
-77.97
-68.63
-61.44
-56.97
-55.03
-54.76
-54.87
-54.22
-52.56
-50.78
-50.64
-53.94
-61.64
-73.49
-88.11
-103.10
-115.24
-120.86
-116.61
-100.52
-73.23
-38.29
-1.36
31.69
56.90
73.55
83.89
91.73
100.48
111.83
125.62
140.60
155.55
169.90
183.85
197.87
212.12
225.78
236.74
241.89
237.96
222.85
196.85
163.14
127.19
95.34
72.87
62.56
64.11
74.56
89.41
103.82
113.65
115.94
109.01
92.29
66.18
31.96
-8.12
-50.73
-91.73
-126.85
-152.86
-168.56
-175.32
-176.64
-176.96
-180.12
-188.19
-201.05
-216.56
-231.14
-240.65
-241.33
-230.92
-209.63
-180.62
-149.40
-122.38
-104.54
-97.63
-99.40
-104.79
-108.35
-106.81
-100.31
-91.63
-84.18
-79.80
-77.84
-75.91
-71.49
-63.37
-52.00
-38.94
-25.89
-14.25
-5.29
-0.43
-1.26
-8.82
-22.77
-41.05
-60.24
-76.50
-86.52
-88.25
-81.06
-65.65
-43.78
-18.12
8.10
31.43
48.88
58.63
60.64
56.75
50.24
44.92
43.76
47.79
55.64
64.35
71.04
74.67
76.89
81.21
91.00
107.18
127.06
144.81
153.66
148.56
128.17
95.12
54.81
13.27
-24.60
-55.79
-79.00
-94.12
-101.90
-103.76
-101.55
-96.71
-89.54
-78.88
-62.79
-40.05
-11.61
19.17
47.89
71.18
88.34
101.30
112.91
124.76
135.79
142.51
140.69
127.28
101.60
65.61
23.29
-20.33
-60.19
-92.34
-114.72
-127.71
-133.78
-136.28
-137.71
-138.43
-136.71
-130.09
-117.54
-100.80
-84.23
-72.88
-69.92
-74.79
-83.08
-88.39
-85.06
-70.63
-46.75
-18.17
9.31
30.92
44.00
47.97
43.63
32.38
15.97
-3.40
-22.75
-38.30
-46.14
-43.29
-28.87
-4.68
25.10
55.01
79.81
95.97
102.43
100.69
94.16
87.00
82.89
83.88
89.99
99.31
108.79
115.41
117.41
115.05
110.45
106.82
107.10
112.75
123.11
135.52
146.20
151.31
148.00
134.96
112.55
82.59
47.75
11.01
-24.92
-57.85
-86.13
-108.51
-124.10
-132.47
-133.87
-129.49
-121.34
-111.86
-103.27
-97.05
-93.72
-93.05
-94.40
-97.08
-100.46
-103.80
-106.12
-106.13
-102.54
-94.56
-82.42
-67.64
-52.80
-40.94
-34.49
-34.36
-39.37
-46.37
-51.23
-50.19
-41.26
-24.89
-3.91
17.53
35.18
45.81
47.75
40.94
26.77
7.83
-12.30
-29.46
-39.59
-39.64
-28.39
-6.94
21.54
52.67
81.92
105.73
122.10
130.59
132.03
127.82
119.54
108.57
96.13
83.37
71.40
61.22
53.46
48.18
44.92
43.01
42.03
42.12
43.96
48.32
55.43
64.57
74.03
81.66
85.63
85.09
80.33
72.42
62.43
50.82
37.29
21.26
2.53
-18.11
-38.94
-57.84
-73.05
-83.82
-90.44
-93.89
-95.26
-95.39
-94.86
-94.20
-93.99
-94.67
-96.10
-97.30
-96.58
-92.19
-83.18
-70.07
-54.84
-40.24
-28.81
-22.12
-20.43
-22.92
-28.15
-34.50
-40.34
-44.11
-44.48
-40.56
-32.20
-20.08
-5.53
9.85
24.63
37.76
48.62
56.91
62.53
65.56
66.21
64.82
61.71
57.12
51.26
44.44
37.21
30.42
25.02
21.76
20.90
22.14
24.74
27.82
30.69
32.93
34.46
35.34
35.70
35.61
35.14
34.30
33.15
31.82
30.43
29.11
27.87
26.56
24.90
22.57
19.45
15.70
11.79
8.38
6.06
5.19
5.83
7.81
10.94
15.08
20.17
26.16
32.90
40.15
47.61
54.91
61.67
67.54
72.17
75.24
76.56
76.05
73.77
69.91
64.61
57.99
50.06
40.90
30.68
19.81
8.89
-1.43
-10.60
-18.41
-24.97
-30.48
-34.87
-37.56
-37.58
-33.98
-26.41
-15.48
-2.68
10.03
20.79
28.23
31.59
30.60
25.36
16.25
3.95
-10.58
-26.21
-41.88
-56.71
-70.10
-81.75
-91.59
-99.79
-106.61
-112.37
-117.27
-121.39
-124.75
-127.27
-128.64
-128.08
-124.37
-116.23
-103.11
-85.85
-66.86
-49.48
-36.69
-29.90
-28.37
-29.71
-30.94
-29.85
-25.65
-18.96
-10.99
-2.86
5.07
13.05
21.58
30.87
40.50
49.58
57.05
62.25
65.09
65.88
64.99
62.54
58.53
53.10
46.79
40.35
34.37
28.86
23.24
16.75
9.04
0.30
-8.85
-17.86
-26.54
-35.13
-43.85
-52.64
-61.09
-68.87
-76.09
-83.21
-90.27
-96.13
-98.33
-94.04
-81.72
-62.42
-39.82
-18.74
-3.09
5.70
8.73
8.34
6.42
3.45
-1.10
-7.47
-14.40
-19.05
-18.15
-9.73
5.75
25.40
45.14
61.27
71.72
76.40
76.61
74.00
69.63
63.57
55.14
43.60
28.91
12.20
-4.40
-18.36
-27.54
-30.92
-28.82
-22.72
-14.66
-6.55
0.32
5.49
9.28
12.48
16.00
20.31
25.04
28.80
29.57
25.47
15.59
0.48
-17.98
-37.30
-55.17
-69.93
-80.64
-86.70
-87.65
-83.47
-74.91
-63.67
-52.06
-42.09
-34.60
-28.84
-22.98
-15.12
-4.27
9.10
23.32
36.14
45.64
50.86
52.01
50.13
46.47
41.88
36.46
29.67
20.78
9.63
-3.04
-15.63
-26.26
-33.49
-36.82
-36.66
-33.96
-29.72
-24.67
-19.31
-14.10
-9.60
-6.39
-4.83
-4.72
-5.12
-4.52
-1.38
5.21
15.02
26.64
37.86
46.35
50.25
48.58
41.40
29.74
15.66
2.14
-7.38
-9.88
-3.87
9.83
28.26
47.44
64.00
76.23
84.19
88.81
90.66
89.41
84.12
74.25
60.40
44.32
28.14
13.38
0.38
-11.29
-22.05
-31.54
-38.61
-41.92
-40.71
-35.35
-27.11
-17.57
-8.01
0.77
8.43
14.82
19.89
23.72
26.52
28.52
29.81
30.37
30.13
29.15
27.49
25.09
21.56
16.33
9.02
-0.11
-9.96
-19.00
-25.87
-29.81
-30.74
-28.90
-24.60
-18.27
-10.72
-3.47
1.47
2.20
-2.38
-12.07
-25.48
-40.43
-54.51
-65.55
-72.01
-73.23
-69.58
-62.41
-53.58
-44.97
-37.89
-32.92
-30.12
-29.25
-30.00
-31.90
-34.22
-35.97
-36.21
-34.40
-30.68
-25.82
-20.86
-16.79
-14.21
-13.28
-13.75
-15.03
-16.36
-16.95
-16.32
-14.45
-11.90
-9.59
-8.42
-8.95
-11.19
-14.68
-18.65
-22.16
-24.09
-23.26
-18.75
-10.49
0.40
11.63
20.62
25.48
25.85
23.01
19.12
16.23
15.30
16.14
17.77
19.14
19.75
19.71
19.56
19.86
21.01
23.11
25.93
28.96
31.41
32.35
30.99
26.96
20.41
11.91
2.27
-7.85
-17.97
-27.77
-36.85
-44.70
-50.61
-53.91
-54.13
-51.21
-45.54
-38.01
-29.85
-22.48
-17.32
-15.42
-17.23
-22.42
-29.99
-38.57
-46.81
-53.66
-58.54
-61.28
-62.06
-61.41
-59.94
-58.15
-56.01
-52.77
-47.11
-37.75
-24.16
-7.00
11.99
30.88
48.30
63.88
77.84
90.28
100.51
107.11
108.69
104.75
96.30
85.54
75.09
66.97
61.97
59.71
59.09
58.84
58.02
56.15
53.16
49.19
44.47
39.32
34.24
29.97
27.44
27.50
30.56
36.25
43.32
49.90
54.10
54.68
51.38
45.02
37.13
29.36
23.03
18.86
16.95
16.94
18.31
20.46
22.84
25.05
26.83
28.18
29.33
30.64
32.30
34.20
35.75
36.04
34.16
29.60
22.54
13.93
5.32
-1.52
-5.09
-4.59
-0.28
6.49
13.60
18.80
20.42
17.90
11.95
4.19
-3.49
-9.62
-13.55
-15.48
-16.07
-16.00
-15.70
-15.34
-15.07
-15.30
-16.66
-19.73
-24.68
-30.97
-37.48
-43.02
-46.86
-49.11
-50.53
-52.13
-54.43
-57.16
-59.30
-59.50
-56.71
-50.50
-41.30
-30.15
-18.42
-7.48
1.58
8.12
11.98
13.48
13.25
12.11
10.90
10.37
11.05
13.17
16.56
20.65
24.58
27.40
28.38
27.24
24.16
19.66
14.30
8.47
2.31
-4.27
-11.37
-19.05
-27.27
-35.85
-44.55
-53.13
-61.41
-69.27
-76.72
-83.68
-89.88
-94.77
-97.61
-97.84
-95.43
-91.06
-85.90
-81.12
-77.34
-74.51
-72.01
-69.16
-65.48
-60.76
-54.86
-47.52
-38.43
-27.38
-14.50
-0.27
14.70
29.92
45.15
60.18
74.64
87.85
99.07
107.90
114.55
119.76
124.43
129.05
133.46
136.98
138.77
138.41
136.06
132.54
128.93
126.18
124.78
124.66
125.29
126.07
126.59
126.87
127.30
128.35
130.05
131.74
131.93
128.83
121.07
108.46
92.27
75.00
59.49
47.78
40.35
35.77
31.23
23.38
9.52
-11.52
-38.93
-70.07
-101.18
-128.38
-148.69
-160.87
-165.85
-166.74
-167.99
-173.99
-187.16
-206.40
-226.63
-240.10
-239.20
-219.75
-183.07
-135.81
-87.42
-46.57
-18.16
-2.43
3.86
5.03
4.51
4.06
4.35
5.94
9.80
17.02
27.99
41.63
55.54
66.77
73.16
74.19
71.16
66.60
63.16
62.62
65.24
69.82
74.30
76.51
74.86
68.71
58.34
44.74
29.15
12.77
-3.31
-18.16
-31.01
-41.47
-49.64
-56.29
-62.57
-69.61
-77.97
-87.50
-97.39
-106.62
-114.32
-119.95
-123.30
-124.26
-122.68
-118.34
-110.98
-100.40
-86.51
-69.41
-49.63
-28.51
-8.45
7.33
15.56
14.24
3.74
-12.69
-29.83
-42.29
-46.48
-41.89
-31.01
-18.03
-6.98
-0.29
1.89
1.44
1.41
4.77
13.40
27.36
44.84
62.85
78.27
89.01
94.57
95.77
94.27
91.87
90.22
90.65
93.80
99.06
104.26
106.00
101.03
87.87
67.67
43.78
20.00
-1.26
-19.65
-36.01
-50.75
-62.65
-69.15
-68.07
-59.45
-46.37
-33.92
-27.10
-28.56
-37.57
-50.61
-63.16
-71.68
-74.71
-72.84
-67.78
-61.18
-53.79
-45.44
-35.61
-24.17
-11.80
0.15
10.28
17.79
22.90
26.69
30.48
35.17
40.74
46.38
50.87
53.17
52.84
50.20
46.10
41.65
37.84
35.33
34.24
34.12
34.20
33.56
31.60
28.14
23.51
18.24
12.76
7.28
1.80
-3.60
-8.59
-12.59
-15.06
-15.75
-14.88
-12.99
-10.60
-7.97
-4.98
-1.33
3.25
8.67
14.53
20.20
25.07
28.78
31.26
32.66
33.20
33.05
32.24
30.80
28.84
26.62
24.46
22.61
21.15
19.93
18.70
17.28
15.61
13.80
11.99
10.31
8.81
7.55
6.64
6.21
6.37
7.03
7.90
8.57
8.63
7.86
6.26
4.01
1.40
-1.29
-3.81
-5.98
-7.71
-9.05
-10.19
-11.47
-13.20
-15.53
-18.27
-20.91
-22.77
-23.30
-22.32
-20.06
-17.02
-13.78
-10.74
-8.12
-6.03
-4.55
-3.81
-3.89
-4.71
-6.03
-7.49
-8.81
-9.86
-10.73
-11.58
-12.49
-13.32
-13.76
-13.43
-12.05
-9.59
-6.26
-2.51
1.10
4.07
6.06
6.93
6.74
5.72
4.17
2.37
0.59
-0.95
-2.08
-2.68
-2.72
-2.25
-1.40
-0.35
0.77
1.82
2.80
3.61
4.10
4.05
3.29
1.84
-0.19
-2.69
-5.63
-8.89
-12.40
-16.03
-19.64
-23.07
-26.07
-28.48
-30.30
-31.58
-32.25
-32.38
-32.29
-32.37
-32.92
-33.68
-34.11
-33.60
-31.74
-27.93
-22.32
-15.90
-9.99
-5.68
-2.74
-0.27
2.74
7.12
14.37
24.91
37.67
50.81
62.47
72.84
82.77
92.97
103.70
116.67
132.35
149.58
166.30
180.16
191.29
200.07
206.20
209.10
210.85
212.88
214.85
214.83
209.78
199.43
184.06
164.05
124.24
61.20
-14.79
-85.62
-131.77
-157.41
-169.78
-174.72
-176.67
-177.13
-173.47
-163.57
-147.71
-128.66
-110.74
-95.37
-83.01
-73.63
-66.67
-59.43
-50.29
-39.52
-28.86
-20.48
-13.94
-8.23
-2.88
1.72
5.57
7.65
6.23
-0.15
-11.80
-25.97
-38.83
-47.09
-49.03
-44.59
-35.88
-26.48
-19.92
-18.51
-22.11
-29.14
-37.60
-45.74
-51.97
-54.95
-53.47
-46.64
-34.38
-17.62
1.46
19.96
35.28
46.04
52.35
55.23
55.49
52.58
44.51
28.91
4.83
-25.89
-58.61
-87.50
-107.82
-117.65
-118.05
-112.15
-103.42
-94.72
-88.25
-86.36
-92.00
-108.16
-135.98
-172.76
-211.32
-241.53
-253.63
-241.59
-205.25
-150.20
-85.80
-22.12
32.96
75.41
105.11
124.62
137.34
145.99
151.92
155.31
155.89
153.70
149.51
144.56
139.95
135.89
131.62
125.90
117.95
108.18
98.13
89.57
83.67
80.40
78.71
77.25
75.09
71.99
68.14
63.69
58.52
52.28
44.75
36.12
26.85
17.39
7.83
-2.10
-12.66
-23.66
-34.31
-43.52
-50.39
-54.68
-56.85
-57.78
-58.33
-59.02
-59.97
-61.06
-62.07
-62.87
-63.39
-63.48
-62.91
-61.21
-57.81
-52.16
-43.93
-33.23
-20.71
-7.53
4.81
14.77
21.04
23.02
20.99
16.24
10.73
6.52
5.01
6.56
10.51
15.58
20.32
23.35
23.38
19.24
10.30
-2.91
-18.26
-32.15
-40.72
-41.29
-33.63
-20.07
-4.47
9.40
19.17
24.26
25.38
23.52
19.20
12.24
2.08
-11.57
-28.30
-46.66
-64.39
-78.89
-88.01
-90.71
-87.51
-80.34
-71.74
-63.75
-56.90
-49.98
-40.65
-26.80
-7.74
15.08
38.50
58.73
72.62
78.60
76.87
68.97
56.96
42.79
27.91
13.33
-0.20
-11.87
-20.86
-26.38
-28.07
-26.24
-21.95
-16.76
-12.20
-9.30
-8.32
-8.82
-9.93
-10.81
-10.94
-10.10
-8.42
-6.19
-3.82
-1.63
0.25
1.90
3.48
4.92
5.65
4.49
-0.10
-9.31
-23.32
-40.71
-58.71
-73.90
-83.39
-85.78
-81.60
-72.91
-62.28
-51.74
-42.23
-33.77
-26.20
-19.84
-15.72
-15.04
-18.22
-24.22
-30.65
-34.68
-34.32
-29.25
-20.84
-11.19
-1.99
6.23
14.06
22.38
31.61
41.43
50.99
59.56
66.75
72.33
75.66
75.27
69.43
57.21
39.59
19.77
2.14
-9.48
-13.49
-11.10
-5.40
0.38
4.51
7.44
11.28
18.35
29.90
45.45
63.04
80.04
94.10
103.67
108.08
107.34
101.87
92.46
80.32
67.25
55.46
46.96
42.76
42.15
42.76
41.36
35.30
23.83
8.40
-8.05
-22.44
-32.83
-38.75
-40.69
-39.42
-35.60
-30.24
-25.13
-22.95
-26.03
-35.05
-48.23
-62.03
-72.92
-79.09
-80.95
-80.45
-79.62
-79.25
-78.89
-78.05
-77.43
-79.06
-84.72
-93.82
-102.57
-105.45
-97.52
-77.09
-46.97
-13.59
15.66
35.68
45.44
47.73
46.18
44.30
44.68
48.54
55.77
65.53
77.12
90.30
105.04
119.02
130.11
137.58
141.93
143.78
143.36
141.14
138.16
135.83
132.17
125.69
116.87
107.05
96.10
81.32
59.30
27.73
-13.64
-67.83
-135.49
-212.85
-292.75
-367.15
-429.77
-475.91
-503.04
-484.77
-413.10
-305.38
-193.36
-100.22
-31.24
17.88
52.02
72.31
77.18
62.09
27.67
-14.78
-49.55
-59.73
-40.88
0.07
49.06
91.48
113.44
109.41
83.88
44.43
-2.01
-51.58
-101.48
-148.69
-189.62
-222.85
-246.56
-258.16
-255.41
-237.61
-207.09
-167.49
-122.38
-72.98
-22.57
26.84
74.70
120.59
163.35
200.57
230.49
253.22
271.74
290.62
315.04
348.49
390.92
439.21
488.06
532.37
568.36
594.65
611.78
621.64
625.84
624.70
617.17
601.54
576.72
542.51
500.83
455.20
409.69
367.24
328.74
293.44
260.00
227.54
193.71
157.05
117.38
75.58
32.66
-10.80
-54.42
-97.47
-138.63
-180.69
-225.57
-272.58
-318.72
-360.48
-395.76
-424.05
-445.51
-460.33
-475.72
-497.30
-525.82
-557.83
-588.43
-614.71
-636.26
-653.89
-668.39
-689.56
-724.93
-775.59
-836.84
-901.64
-965.30
-1026.45
-1085.32
-1084.54
-991.67
-812.63
-589.42
-371.15
-186.98
-44.91
58.65
131.07
180.27
204.89
200.37
177.55
152.95
143.85
159.88
200.65
258.65
324.82
384.93
430.64
455.40
458.55
446.33
425.47
399.92
371.32
342.14
310.21
273.64
236.60
199.14
164.51
135.66
112.95
95.15
83.36
76.69
74.52
74.48
72.49
71.18
74.61
83.88
97.60
116.89
141.53
170.86
199.47
226.40
254.85
289.65
332.92
362.70
362.82
326.73
288.28
250.93
211.09
154.19
81.52
3.00
-67.06
-112.34
-123.80
-102.69
-63.41
-18.41
25.55
69.06
114.43
162.69
213.46
261.04
296.41
307.55
290.73
250.73
198.35
144.09
94.86
54.23
20.49
-10.27
-43.62
-81.26
-122.55
-166.69
-213.75
-262.90
-309.42
-346.23
-364.00
-355.18
-316.09
-250.16
-169.45
-90.62
-29.68
2.54
0.08
-36.19
-99.28
-177.34
-255.41
-320.39
-362.00
-374.80
-349.12
-287.51
-207.24
-131.48
-77.67
-40.52
-10.09
22.55
60.72
104.38
150.01
194.72
238.40
274.18
296.89
302.80
293.57
274.62
251.99
228.49
204.89
181.02
155.91
129.43
100.17
67.77
33.54
0.40
-29.19
-53.42
-71.38
-82.99
-87.38
-84.46
-74.47
-58.78
-40.30
-23.52
-12.80
-10.76
-18.23
-31.39
-45.23
-55.53
-60.44
-60.44
-57.74
-53.92
-49.45
-44.01
-36.67
-27.35
-16.81
-6.31
3.09
10.95
17.35
22.51
26.48
29.27
30.46
29.44
25.66
18.37
8.02
-3.88
-15.05
-22.87
-25.13
-21.16
-12.30
-1.57
7.34
11.67
10.49
4.82
-3.05
-10.69
-16.66
-20.72
-23.41
-25.36
-26.74
-27.38
-27.13
-26.26
-25.41
-25.43
-26.82
-29.45
-32.60
-35.25
-36.59
-36.40
-35.05
-33.35
-32.11
-31.83
-32.44
-33.35
-33.64
-32.52
-29.62
-25.12
-19.63
-13.95
-8.76
-4.39
-0.83
2.19
4.91
7.46
9.79
11.75
13.21
14.12
14.57
14.69
14.62
14.45
14.23
13.95
13.61
13.22
12.84
12.52
12.30
12.15
12.02
11.82
11.48
10.96
10.26
9.42
8.50
7.58
6.71
5.96
5.31
4.72
4.09
3.32
2.38
1.28
0.15
-0.84
-1.56
-1.91
-1.88
-1.49
-0.79
0.14
1.19
2.26
3.22
3.97
4.47
4.73
4.82
4.80
4.74
4.68
4.59
4.46
4.28
4.07
3.88
3.72
3.58
3.42
3.20
2.92
2.63
2.39
2.22
2.12
2.01
1.79
1.37
0.73
-0.09
-1.03
-1.98
-2.88
-3.69
-4.40
-5.00
-5.46
-5.77
-5.90
-5.85
-5.66
-5.34
-4.92
-4.37
-3.63
-2.66
-1.51
-0.32
0.73
1.46
1.82
1.89
1.80
1.73
1.74
1.83
1.95
1.98
1.90
1.72
1.49
1.31
1.24
1.29
1.42
1.58
1.71
1.80
1.83
1.79
1.66
1.42
1.05
0.62
0.15
-0.28
-0.68
-1.06
-1.45
-1.86
-2.27
-2.61
-2.83
-2.86
-2.67
-2.25
-1.63
-0.88
-0.10
0.63
1.25
1.79
2.27
2.71
3.09
3.30
3.26
2.98
2.54
2.09
1.78
1.67
1.69
1.73
1.70
1.57
1.38
1.21
1.08
0.98
0.86
0.68
0.42
0.08
-0.28
-0.60
-0.84
-0.96
-1.03
-1.14
-1.37
-1.78
-2.35
-3.03
-3.72
-4.32
-4.77
-5.01
-4.99
-4.67
-4.04
-3.15
-2.11
-1.05
-0.06
0.79
1.50
2.08
2.49
2.69
2.66
2.43
2.09
1.77
1.53
1.44
1.45
1.53
1.59
1.61
1.58
1.54
1.50
1.47
1.42
1.33
1.17
0.91
0.56
0.10
-0.45
-1.08
-1.77
-2.42
-2.98
-3.37
-3.63
-3.82
-4.07
-4.47
-5.06
-5.75
-6.43
-6.94
-7.19
-7.14
-6.79
-6.17
-5.31
-4.25
-3.07
-1.82
-0.59
0.54
1.49
2.22
2.69
2.93
3.00
2.98
2.97
3.06
3.24
3.45
3.63
3.70
3.64
3.48
3.26
2.97
2.62
2.20
1.77
1.38
1.13
1.03
1.02
1.01
0.88
0.62
0.25
-0.19
-0.70
-1.30
-2.04
-2.90
-3.81
-4.65
-5.29
-5.69
-5.85
-5.83
-5.67
-5.34
-4.76
-3.84
-2.55
-1.00
0.63
2.12
3.29
4.05
4.42
4.47
4.28
3.90
3.41
2.87
2.40
2.08
1.99
2.12
2.44
2.86
3.29
3.62
3.76
3.61
3.15
2.46
1.73
1.19
0.96
1.04
1.25
1.37
1.22
0.76
0.07
-0.71
-1.46
-2.14
-2.77
-3.37
-3.98
-4.57
-5.12
-5.59
-5.97
-6.20
-6.23
-5.95
-5.31
-4.29
-3.03
-1.68
-0.46
0.51
1.22
1.75
2.25
2.79
3.36
3.83
4.10
4.10
3.88
3.55
3.25
3.06
2.97
2.94
2.89
2.77
2.60
2.41
2.24
2.10
1.97
1.76
1.42
0.94
0.36
-0.18
-0.56
-0.71
-0.65
-0.52
-0.47
-0.61
-0.92
-1.31
-1.67
-1.94
-2.12
-2.29
-2.50
-2.80
-3.14
-3.49
-3.75
-3.82
-3.62
-3.11
-2.31
-1.28
-0.12
1.07
2.19
3.18
3.96
4.46
4.65
4.53
4.19
3.73
3.29
2.96
2.78
2.71
2.69
2.66
2.61
2.52
2.43
2.34
2.25
2.14
2.00
1.83
1.69
1.61
1.61
1.66
1.67
1.55
1.23
0.73
0.11
-0.49
-0.99
-1.29
-1.40
-1.42
-1.46
-1.66
-2.07
-2.68
-3.41
-4.13
-4.70
-5.04
-5.10
-4.89
-4.40
-3.67
-2.76
-1.75
-0.73
0.26
1.17
2.00
2.75
3.38
3.83
4.00
3.87
3.49
3.02
2.64
2.47
2.52
2.71
2.90
3.03
3.09
3.13
3.15
3.15
3.02
2.71
2.19
1.54
0.89
0.37
0.04
-0.12
-0.17
-0.17
-0.20
-0.29
-0.49
-0.79
-1.17
-1.59
-1.96
-2.22
-2.33
-2.35
-2.39
-2.56
-2.97
-3.62
-4.39
-5.09
-5.51
-5.54
-5.15
-4.40
-3.39
-2.24
-1.02
0.21
1.38
2.41
3.25
3.82
4.11
4.17
4.03
3.78
3.49
3.22
3.02
2.94
2.97
3.09
3.26
3.46
3.67
3.88
4.05
4.09
3.94
3.55
2.95
2.20
1.42
0.71
0.10
-0.36
-0.69
-0.88
-0.96
-0.94
-0.89
-0.86
-0.92
-1.09
-1.35
-1.66
-1.97
-2.26
-2.56
-2.92
-3.36
-3.91
-4.48
-4.95
-5.14
-4.93
-4.28
-3.25
-2.00
-0.68
0.61
1.81
2.91
3.86
4.63
5.17
5.43
5.45
5.33
5.22
5.22
5.39
5.72
6.10
6.44
6.68
6.81
6.84
6.82
6.76
6.70
6.66
6.66
6.70
6.79
6.92
7.05
7.15
7.19
7.20
7.22
7.28
7.38
7.48
7.51
7.41
7.15
6.72
6.13
5.36
4.41
3.28
2.00
0.58
-0.94
-2.53
-4.16
-5.81
-7.40
-8.86
-10.05
-10.89
-11.33
-11.38
-11.08
-10.53
-9.86
-9.22
-8.79
-8.68
-8.92
-9.41
-9.96
-10.38
-10.54
-10.38
-10.00
-9.52
-9.08
-8.81
-8.74
-8.82
-8.94
-8.94
-8.71
-8.22
-7.53
-6.75
-5.98
-5.28
-4.63
-3.99
-3.34
-2.65
-1.91
-1.11
-0.23
0.70
1.60
2.36
2.89
3.16
3.26
3.33
3.46
3.69
3.94
4.09
4.05
3.80
3.36
2.82
2.25
1.70
1.21
0.81
0.53
0.43
0.57
1.08
2.08
3.69
5.98
8.84
11.96
14.86
17.09
18.42
18.96
19.21
19.82
21.31
23.81
26.97
30.09
32.45
33.61
33.67
33.22
33.16
34.28
36.92
40.75
44.90
48.30
50.11
50.09
48.73
47.09
46.37
47.45
50.46
54.69
58.71
60.93
60.14
56.09
49.64
42.54
36.85
34.25
35.33
39.08
42.70
42.01
32.57
11.26
-22.21
-64.59
-109.76
-150.67
-181.69
-200.26
-207.06
-204.74
-196.17
-183.14
-166.27
-145.88
-122.94
-99.38
-77.56
-59.13
-44.21
-31.35
-18.38
-3.70
12.79
29.60
44.39
55.25
61.66
64.72
66.49
68.84
72.54
77.00
80.79
82.57
81.81
78.89
74.81
70.49
66.41
62.48
58.27
53.30
47.33
40.44
32.99
25.53
18.57
12.46
7.22
2.56
-1.92
-6.40
-10.65
-14.05
-15.87
-15.64
-13.37
-9.60
-5.10
-0.67
3.09
5.70
6.79
6.04
3.29
-1.36
-7.39
-14.04
-20.52
-26.36
-31.45
-35.92
-39.79
-42.69
-43.89
-42.57
-38.26
-31.26
-22.63
-13.97
-6.95
-2.87
-2.31
-5.13
-10.50
-17.09
-23.34
-27.73
-29.16
-27.26
-22.57
-16.36
-10.16
-5.23
-2.15
-0.74
-0.38
-0.48
-0.81
-1.48
-2.70
-4.43
-6.23
-7.48
-7.69
-6.87
-5.53
-4.39
-3.95
-4.23
-4.77
-4.98
-4.44
-3.16
-1.45
0.31
1.81
2.92
3.52
3.47
2.62
0.94
-1.25
-3.22
-4.12
-3.28
-0.59
3.35
7.49
10.70
12.19
11.64
9.19
5.20
0.08
-5.80
-11.93
-17.58
-21.78
-23.51
-22.07
-17.37
-10.09
-1.55
6.61
12.85
16.05
15.73
12.13
6.03
-1.34
-8.59
-14.48
-18.15
-19.33
-18.31
-15.72
-12.33
-8.78
-5.50
-2.70
-0.47
1.18
2.26
2.86
3.15
3.33
3.62
4.13
4.89
5.83
6.82
7.75
8.59
9.29
9.81
10.03
9.79
8.94
7.40
5.27
2.75
0.16
-2.00
-3.44
-4.12
-4.20
-3.93
-3.55
-3.28
-3.34
-3.93
-5.03
-6.62
-8.57
-10.61
-12.30
-13.21
-13.09
-12.15
-10.85
-9.33
-7.79
-6.45
-5.31
-4.27
-3.30
-2.49
-2.61
-4.25
-6.65
-9.06
-11.17
-12.52
-12.81
-11.98
-10.29
-9.27
-10.28
-11.96
-13.29
-14.31
-14.90
-14.97
-14.60
-14.05
-15.39
-20.26
-26.10
-31.08
-35.21
-38.27
-39.93
-39.90
-38.03
-36.77
-38.64
-41.63
-45.49
-52.69
-65.02
-83.04
-105.94
-117.33
-106.04
-93.47
-88.84
-86.65
-85.86
-85.42
-83.70
-78.62
-68.23
-53.64
-36.64
-14.90
11.96
41.36
70.90
98.41
121.89
139.68
148.85
147.71
139.57
127.81
114.26
100.87
89.13
79.78
72.92
67.14
61.15
56.20
52.91
50.52
48.24
45.37
41.49
36.64
30.65
23.60
16.54
9.97
3.58
-2.67
-8.45
-13.06
-15.78
-16.46
-15.42
-13.04
-9.90
-6.69
-3.79
-1.35
0.57
1.90
2.53
2.44
1.73
0.63
-0.59
-1.73
-2.66
-3.31
-3.60
-3.46
-2.80
-1.64
-0.17
1.36
2.63
3.40
3.54
3.11
2.23
1.10
-0.15
-1.41
-2.59
-3.63
-4.48
-5.11
-5.57
-6.03
-6.71
-7.88
-9.64
-11.87
-14.19
-16.01
-16.74
-16.03
-13.87
-10.62
-6.80
-2.96
0.50
3.40
5.70
7.44
8.66
9.38
9.64
9.50
9.10
8.60
8.17
7.97
8.09
8.54
9.20
9.87
10.28
10.17
9.48
8.31
7.01
5.95
5.44
5.54
6.07
6.76
7.33
7.66
7.70
7.44
6.82
5.75
4.20
2.26
0.09
-2.19
-4.60
-7.32
-10.52
-14.17
-17.87
-20.91
-22.42
-21.69
-18.37
-12.60
-5.01
3.37
11.28
17.50
21.09
21.71
19.65
15.71
10.92
6.16
2.01
-1.24
-3.49
-4.62
-4.51
-3.14
-0.71
2.28
5.15
7.26
8.24
8.04
6.92
5.18
3.07
0.70
-1.88
-4.52
-6.93
-8.72
-9.58
-9.44
-8.65
-7.81
-7.62
-8.58
-10.80
-13.98
-17.47
-20.53
-22.47
-22.83
-21.43
-18.41
-14.13
-9.15
-4.09
0.48
4.16
6.77
8.36
9.17
9.47
9.49
9.42
9.37
9.42
9.62
9.96
10.39
10.79
11.01
10.97
10.66
10.12
9.47
8.79
8.10
7.37
6.57
5.64
4.55
3.29
1.89
0.43
-1.01
-2.32
-3.44
-4.42
-5.36
-6.41
-7.72
-9.36
-11.36
-13.63
-16.07
-18.46
-20.49
-21.78
-21.94
-20.65
-17.82
-13.67
-8.66
-3.44
1.37
5.28
8.03
9.59
10.13
9.91
9.26
8.50
7.96
7.90
8.42
9.47
10.85
12.25
13.41
14.16
14.47
14.39
14.06
13.56
12.93
12.19
11.32
10.32
9.21
8.01
6.75
5.47
4.23
3.06
2.02
1.12
0.34
-0.37
-1.13
-2.04
-3.23
-4.80
-6.81
-9.24
-11.95
-14.72
-17.20
-18.99
-19.71
-19.05
-16.92
-13.45
-8.97
-4.01
0.88
5.19
8.57
10.89
12.25
12.88
13.11
13.23
13.46
13.88
14.48
15.18
15.88
16.43
16.73
16.68
16.29
15.63
14.92
14.42
14.30
14.60
15.12
15.54
15.54
14.97
13.88
12.47
10.95
9.45
7.98
6.51
5.04
3.66
2.42
1.32
0.28
-0.81
-2.06
-3.39
-4.68
-5.81
-6.79
-7.82
-9.16
-11.00
-13.26
-15.62
-17.55
-18.53
-18.19
-16.37
-13.23
-9.10
-4.50
0.04
4.00
7.04
9.03
10.10
10.57
10.83
11.23
11.96
13.02
14.29
15.57
16.62
17.23
17.37
17.17
16.89
16.79
16.98
17.44
18.00
18.43
18.63
18.73
19.03
19.80
21.04
22.59
24.21
25.70
26.98
28.12
29.38
31.17
33.62
36.48
39.40
42.18
44.84
47.54
50.54
54.27
59.29
65.67
72.81
79.88
86.43
92.45
98.06
103.60
109.72
117.56
127.69
139.91
153.90
169.62
186.69
203.28
215.95
220.59
214.04
194.12
160.28
114.32
60.03
1.38
-59.36
-121.95
-186.97
-248.93
-296.26
-319.63
-319.01
-301.80
-276.74
-250.74
-228.15
-210.61
-196.94
-185.38
-174.37
-162.51
-148.75
-133.11
-117.16
-103.31
-96.36
-95.63
-99.92
-106.93
-112.38
-110.07
-93.67
-59.46
-8.21
54.08
117.56
170.21
202.06
208.36
190.45
153.81
104.58
46.53
-16.24
-80.70
-145.14
-207.15
-262.19
-303.79
-325.36
-323.09
-297.58
-253.99
-199.86
-142.08
-84.06
-24.71
39.61
111.41
186.66
258.53
315.51
345.56
341.12
302.71
239.95
168.98
107.66
70.22
64.37
90.30
142.74
213.65
294.08
374.63
445.33
496.43
520.26
514.03
480.77
428.68
368.49
309.68
257.80
213.81
175.51
139.75
104.12
67.35
29.11
-10.51
-51.40
-93.34
-136.10
-179.24
-221.95
-263.26
-302.30
-338.81
-373.75
-409.73
-450.09
-497.27
-550.78
-605.52
-652.32
-680.47
-681.71
-653.27
-598.52
-525.13
-443.15
-363.35
-296.44
-251.97
-236.25
-249.91
-286.25
-332.48
-373.07
-395.97
-396.90
-379.64
-352.47
-323.17
-295.93
-271.11
-247.34
-221.90
-193.83
-164.14
-134.73
-106.58
-79.17
-51.10
-21.73
8.06
39.94
74.57
110.77
145.71
176.96
204.18
228.79
252.33
275.13
302.41
337.59
380.10
425.35
468.20
506.34
540.52
572.62
603.73
641.76
692.36
755.82
826.64
897.88
965.62
1029.37
1090.27
1097.71
1018.84
854.74
643.10
429.72
241.13
81.31
-57.20
-182.35
-297.41
-392.33
-456.28
-485.75
-487.80
-475.41
-460.36
-450.61
-448.03
-452.63
-458.13
-459.69
-456.89
-453.36
-452.67
-454.26
-453.38
-444.16
-423.93
-391.00
-348.41
-304.04
-267.09
-243.63
-233.69
-230.55
-224.83
-209.68
-181.32
-139.95
-89.93
-36.83
15.63
66.72
117.36
168.13
218.43
268.34
320.30
375.37
432.50
488.51
538.73
577.77
600.45
602.86
583.34
544.85
490.05
421.45
341.89
254.91
164.30
73.09
-17.37
-116.77
-220.61
-316.83
-392.06
-437.29
-448.99
-428.59
-382.45
-321.36
-260.50
-204.75
-157.11
-118.31
-86.44
-58.01
-29.57
1.41
37.23
76.20
113.86
145.45
167.07
176.77
173.72
157.28
127.35
86.21
39.13
-5.21
-39.74
-61.44
-71.59
-74.30
-74.08
-73.81
-74.09
-74.29
-72.73
-68.88
-63.36
-57.13
-50.71
-44.09
-36.95
-29.15
-21.29
-13.81
-7.60
-3.43
-1.67
-2.13
-4.16
-6.92
-9.56
-11.66
-13.02
-13.60
-13.36
-12.29
-10.52
-8.46
-6.99
-7.05
-9.47
-14.37
-20.72
-26.66
-30.27
-30.39
-27.25
-23.13
-19.64
-18.32
-19.86
-23.88
-29.08
-33.97
-37.35
-38.72
-38.52
-37.42
-36.14
-34.99
-33.88
-32.62
-31.30
-30.42
-29.16
-27.35
-24.16
-18.26
-8.06
7.26
26.99
48.62
68.67
83.94
92.53
94.49
91.05
83.69
73.43
60.89
46.83
32.66
20.33
11.46
6.86
5.97
7.24
8.81
9.38
8.46
6.31
3.52
0.50
-2.42
-5.08
-7.36
-9.13
-10.29
-10.81
-10.79
-10.50
-10.30
-10.49
-11.22
-12.39
-13.74
-14.99
-15.94
-16.53
-16.83
-16.94
-16.92
-16.74
-16.36
-15.77
-15.02
-14.21
-13.45
-12.83
-12.34
-12.00
-11.78
-11.71
-11.81
-12.06
-12.41
-12.70
-12.72
-12.25
-11.10
-9.27
-6.94
-4.44
-2.16
-0.40
0.72
1.27
1.45
1.49
1.53
1.64
1.80
2.04
2.34
2.74
3.18
3.60
3.86
3.85
3.56
3.06
2.50
2.01
1.69
1.51
1.38
1.18
0.84
0.38
-0.18
-0.80
-1.49
-2.28
-3.14
-3.99
-4.60
-4.77
-4.41
-3.63
-2.74
-2.05
-1.84
-2.24
-3.17
-4.35
-5.34
-5.73
-5.21
-3.71
-1.43
1.23
3.72
5.66
6.98
8.00
9.18
10.92
13.34
16.23
19.08
21.19
22.06
21.72
20.87
20.53
21.85
25.69
32.25
40.50
48.00
51.40
47.46
34.14
10.93
-20.36
-55.22
-86.81
-107.94
-113.59
-102.62
-78.08
-46.23
-15.05
8.42
20.46
21.52
14.88
4.50
-5.88
-12.81
-13.35
-6.50
6.18
20.94
32.87
36.71
27.79
3.93
-33.20
-72.25
-98.27
-102.06
-86.45
-60.99
-34.31
-11.90
4.00
13.83
19.48
22.58
23.99
24.32
24.68
25.87
27.16
25.83
20.93
12.03
-0.67
-15.31
-28.10
-33.87
-28.68
-13.51
5.64
19.76
20.25
2.67
-30.81
-71.83
-109.15
-127.48
-117.20
-77.19
-15.13
54.76
115.77
153.20
158.06
129.08
72.59
-0.46
-77.16
-145.70
-198.11
-231.52
-247.59
-250.58
-245.15
-234.74
-222.07
-208.65
-194.80
-179.66
-161.17
-136.72
-104.41
-64.44
-19.87
23.78
61.20
89.81
111.03
129.01
147.93
169.18
190.38
206.85
214.23
211.09
199.56
184.14
169.50
158.98
154.05
154.76
160.22
168.55
176.70
180.70
176.75
162.86
140.11
112.32
84.44
60.32
41.26
26.00
12.18
-1.94
-16.40
-29.68
-39.92
-46.12
-48.71
-49.06
-48.58
-47.82
-46.39
-43.51
-38.85
-33.00
-27.23
-22.83
-20.43
-19.73
-19.73
-19.30
-17.77
-15.23
-12.39
-10.21
-9.39
-10.11
-11.88
-13.74
-14.69
-14.03
-11.63
-7.95
-3.83
-0.15
2.48
3.88
4.24
3.96
3.42
2.85
2.32
1.79
1.20
0.56
-0.09
-0.65
-1.03
-1.20
-1.14
-0.90
-0.54
-0.20
0.02
-0.01
-0.42
-1.29
-2.71
-4.68
-7.08
-9.66
-12.10
-14.04
-15.28
-15.81
-15.76
-15.34
-14.66
-13.71
-12.40
-10.69
-8.71
-6.70
-4.96
-3.63
-2.63
-1.74
-0.75
0.38
1.52
2.42
2.89
2.95
2.76
2.54
2.48
2.64
2.95
3.36
3.79
4.23
4.69
5.14
5.54
5.82
5.93
5.84
5.61
5.33
5.10
4.95
4.83
4.64
4.26
3.61
2.75
1.82
1.02
0.51
0.35
0.45
0.56
0.32
-0.62
-2.51
-5.31
-8.71
-12.13
-14.93
-16.57
-16.81
-15.71
-13.55
-10.74
-7.68
-4.71
-2.08
0.01
1.44
2.17
2.25
1.85
1.20
0.56
0.15
0.08
0.36
0.86
1.44
1.97
2.42
2.81
3.19
3.58
3.92
4.15
4.22
4.13
3.96
3.76
3.58
3.41
3.19
2.90
2.53
2.08
1.57
0.96
0.24
-0.59
-1.49
-2.40
-3.29
-4.15
-5.05
-6.05
-7.15
-8.28
-9.35
-10.18
-10.58
-10.41
-9.52
-7.91
-5.70
-3.18
-0.69
1.42
2.95
3.92
4.49
4.87
5.22
5.62
6.03
6.42
6.80
7.17
7.56
7.97
8.35
8.65
8.81
8.86
8.79
8.65
8.41
8.07
7.62
7.11
6.60
6.15
5.79
5.46
5.06
4.49
3.66
2.55
1.22
-0.24
-1.67
-2.93
-3.88
-4.48
-4.77
-4.89
-5.04
-5.40
-6.06
-6.98
-8.01
-8.89
-9.35
-9.13
-8.11
-6.34
-4.01
-1.47
0.93
2.93
4.39
5.35
5.88
6.11
6.10
5.91
5.59
5.28
5.07
5.06
5.23
5.50
5.76
5.94
5.99
5.95
5.81
5.62
5.33
4.92
4.39
3.73
3.01
2.24
1.46
0.66
-0.18
-1.08
-2.02
-2.99
-3.98
-4.99
-6.02
-7.06
-8.08
-9.04
-9.91
-10.72
-11.51
-12.38
-13.34
-14.35
-15.20
-15.63
-15.41
-14.47
-12.90
-10.95
-8.88
-6.89
-5.07
-3.42
-1.90
-0.50
0.76
1.80
2.56
3.04
3.29
3.39
3.41
3.39
3.35
3.34
3.40
3.57
3.85
4.21
4.57
4.87
5.08
5.24
5.34
5.37
5.23
4.82
4.08
3.07
1.93
0.83
-0.07
-0.65
-0.89
-0.88
-0.74
-0.57
-0.50
-0.63
-1.02
-1.65
-2.37
-3.03
-3.62
-4.19
-4.76
-5.20
-5.21
-4.45
-2.68
0.17
3.74
7.28
10.06
11.72
12.39
12.50
12.60
13.04
14.26
16.09
17.84
18.79
18.79
18.23
17.77
18.00
19.30
22.39
26.93
31.53
34.62
35.54
34.68
33.01
31.74
31.90
35.19
41.64
49.36
55.80
59.34
59.65
57.51
54.66
53.61
58.53
71.33
90.11
109.97
125.18
130.63
123.13
102.23
60.61
3.18
-54.44
-96.74
-117.67
-118.66
-103.98
-79.41
-52.24
-30.09
-17.53
-16.09
-23.65
-35.23
-45.11
-49.32
-47.42
-41.80
-35.21
-28.93
-24.14
-20.09
-16.43
-13.22
-10.09
-6.60
-2.87
1.15
4.44
5.46
3.12
-3.49
-14.41
-27.07
-37.12
-40.56
-34.88
-22.90
-10.77
-5.40
-8.92
-24.15
-49.70
-80.29
-110.22
-122.15
-107.57
-72.23
-30.30
5.28
30.02
47.06
61.59
73.36
82.94
86.23
79.83
64.17
39.74
7.94
-29.21
-65.03
-98.10
-129.71
-164.56
-206.61
-236.60
-243.71
-231.33
-208.70
-179.20
-140.38
-88.31
-24.58
43.54
105.23
146.54
158.18
140.22
101.17
52.70
6.31
-30.57
-55.14
-68.31
-75.39
-81.34
-87.99
-94.95
-101.79
-107.39
-110.08
-106.92
-94.54
-72.41
-42.59
-9.42
23.68
52.24
73.31
86.75
94.75
100.38
105.35
108.89
112.29
116.05
119.67
122.01
121.59
117.41
109.69
101.05
92.24
85.10
80.28
76.96
73.49
68.44
61.57
53.83
46.92
42.30
41.50
45.13
52.91
62.80
70.80
71.95
62.18
40.54
10.38
-20.79
-44.35
-53.47
-46.24
-25.96
0.84
27.32
48.79
63.32
71.27
70.01
58.62
36.98
6.43
-29.55
-65.55
-95.47
-114.54
-120.91
-116.34
-104.70
-90.71
-77.88
-67.69
-59.71
-52.86
-46.43
-40.70
-36.60
-34.56
-34.51
-35.66
-36.89
-37.24
-36.42
-34.80
-33.15
-32.17
-31.88
-31.92
-31.61
-30.30
-27.55
-23.31
-17.94
-12.09
-6.55
-1.83
1.80
4.40
6.26
7.74
9.04
10.12
10.79
10.79
10.15
9.06
7.89
7.03
6.78
7.29
8.50
10.24
12.24
14.23
15.97
17.29
18.11
18.44
18.33
17.78
16.84
15.50
13.81
11.83
9.64
7.33
4.96
2.58
0.26
-1.91
-3.80
-5.31
-6.34
-6.89
-7.00
-6.85
-6.71
-6.97
-7.94
-9.76
-12.23
-14.85
-16.95
-17.91
-17.40
-15.47
-12.47
-8.90
-5.22
-1.74
1.41
4.18
6.55
8.51
10.03
11.07
11.62
11.66
11.15
10.12
8.72
7.24
6.07
5.63
6.13
7.52
9.46
11.47
13.05
13.85
13.74
12.77
11.09
8.93
6.56
4.35
2.64
1.65
1.37
1.56
1.79
1.62
0.82
-0.59
-2.37
-4.19
-5.77
-6.95
-7.74
-8.29
-8.77
-9.36
-10.23
-11.44
-12.96
-14.55
-15.82
-16.29
-15.52
-13.32
-9.78
-5.31
-0.46
4.16
8.11
11.11
13.14
14.27
14.70
14.65
14.36
14.02
13.76
13.63
13.63
13.74
13.91
14.15
14.45
14.82
15.23
15.64
15.93
16.01
15.80
15.24
14.32
13.08
11.60
9.99
8.37
6.87
5.56
4.45
3.46
2.51
1.52
0.45
-0.69
-1.89
-3.15
-4.46
-5.81
-7.17
-8.52
-9.86
-11.22
-12.58
-13.84
-14.73
-14.86
-13.86
-11.56
-8.08
-3.85
0.55
4.61
7.94
10.42
12.07
13.01
13.41
13.40
13.12
12.64
12.05
11.35
10.60
9.84
9.17
8.65
8.25
7.90
7.46
6.86
6.12
5.37
4.72
4.14
3.51
2.67
1.55
0.25
-1.02
-2.06
-2.81
-3.40
-4.05
-4.94
-6.07
-7.27
-8.33
-9.11
-9.65
-10.17
-10.90
-12.01
-13.50
-15.18
-16.79
-17.97
-18.43
-17.90
-16.26
-13.53
-9.94
-5.91
-1.93
1.58
4.37
6.43
7.90
8.99
9.83
10.48
10.91
11.10
11.04
10.79
10.45
10.14
9.98
10.08
10.46
11.06
11.72
12.23
12.42
12.20
11.57
10.59
9.34
7.91
6.37
4.86
3.51
2.40
1.53
0.83
0.15
-0.62
-1.48
-2.38
-3.26
-4.06
-4.83
-5.72
-6.83
-8.17
-9.59
-10.79
-11.38
-11.05
-9.60
-7.05
-3.58
0.50
4.78
8.84
12.28
14.75
16.10
16.33
15.72
14.69
13.64
12.85
12.43
12.33
12.46
12.64
12.69
12.33
11.34
9.57
7.10
4.26
1.51
-0.73
-2.27
-3.13
-3.50
-3.61
-3.59
-3.48
-3.29
-3.09
-3.05
-3.31
-4.00
-5.05
-6.36
-7.73
-8.99
-10.00
-10.73
-11.23
-11.58
-11.96
-12.55
-13.41
-14.46
-15.43
-15.91
-15.53
-14.09
-11.63
-8.47
-5.03
-1.73
1.15
3.49
5.29
6.60
7.46
7.89
7.92
7.62
7.11
6.57
6.17
6.08
6.37
7.02
7.92
8.82
9.50
9.81
9.72
9.31
8.75
8.17
7.60
6.99
6.22
5.23
4.04
2.76
1.52
0.40
-0.61
-1.57
-2.54
-3.54
-4.51
-5.41
-6.21
-6.92
-7.66
-8.53
-9.61
-10.90
-12.33
-13.84
-15.30
-16.54
-17.35
-17.45
-16.60
-14.72
-11.87
-8.37
-4.62
-1.02
2.10
4.56
6.31
7.37
7.82
7.80
7.49
7.09
6.78
6.70
6.88
7.31
7.88
8.50
9.05
9.43
9.55
9.37
8.92
8.25
7.48
6.71
5.96
5.15
4.19
3.04
1.80
0.71
0.01
-0.16
0.09
0.48
0.65
0.36
-0.43
-1.52
-2.65
-3.62
-4.38
-4.99
-5.58
-6.22
-6.98
-7.86
-8.88
-10.08
-11.40
-12.75
-13.91
-14.62
-14.60
-13.65
-11.70
-8.85
-5.41
-1.82
1.47
4.12
6.03
7.30
8.15
8.73
9.08
9.13
8.86
8.34
7.77
7.42
7.45
7.87
8.50
9.12
9.54
9.70
9.59
9.29
8.84
8.26
7.58
6.87
6.16
5.56
5.06
4.66
4.30
3.92
3.49
2.97
2.37
1.68
0.92
0.03
-0.99
-2.15
-3.43
-4.76
-6.05
-7.13
-7.91
-8.34
-8.53
-8.69
-9.09
-9.95
-11.37
-13.21
-15.16
-16.75
-17.51
-17.08
-15.35
-12.47
-8.82
-4.91
-1.20
1.93
4.29
5.87
6.77
7.16
7.23
7.14
7.00
6.89
6.83
6.82
6.83
6.82
6.74
6.60
6.41
6.24
6.18
6.24
6.40
6.60
6.71
6.67
6.45
6.14
5.81
5.56
5.43
5.41
5.46
5.49
5.46
5.32
5.10
4.84
4.57
4.28
3.91
3.37
2.56
1.47
0.16
-1.23
-2.59
-3.83
-4.91
-5.87
-6.78
-7.72
-8.77
-9.95
-11.24
-12.47
-13.36
-13.57
-12.82
-11.01
-8.29
-5.00
-1.63
1.41
3.87
5.66
6.85
7.56
7.90
7.92
7.67
7.17
6.46
5.65
4.88
4.31
4.03
4.08
4.34
4.64
4.83
4.83
4.67
4.45
4.27
4.14
3.99
3.74
3.35
2.85
2.35
1.86
1.36
0.75
-0.02
-0.94
-1.89
-2.71
-3.34
-3.84
-4.32
-4.89
-5.56
-6.24
-6.82
-7.24
-7.57
-7.92
-8.35
-8.82
-9.27
-9.69
-10.19
-10.95
-12.04
-13.29
-14.26
-14.43
-13.44
-11.28
-8.28
-4.94
-1.74
1.05
3.36
5.26
6.75
7.82
8.36
8.36
7.88
7.07
6.13
5.27
4.63
4.32
4.36
4.75
5.40
6.14
6.82
7.30
7.53
7.51
7.30
6.95
6.50
5.98
5.44
4.94
4.51
4.13
3.72
3.19
2.53
1.77
0.98
0.21
-0.60
-1.58
-2.80
-4.23
-5.71
-7.01
-7.97
-8.55
-8.88
-9.10
-9.37
-9.75
-10.23
-10.81
-11.47
-12.22
-13.00
-13.67
-13.99
-13.70
-12.58
-10.61
-7.90
-4.78
-1.60
1.30
3.70
5.51
6.77
7.59
8.08
8.32
8.31
8.09
7.72
7.33
7.10
7.13
7.46
7.95
8.40
8.60
8.42
7.86
7.03
6.06
5.08
4.12
3.16
2.15
1.05
-0.13
-1.35
-2.53
-3.62
-4.56
-5.34
-5.99
-6.50
-6.92
-7.21
-7.35
-7.30
-7.02
-6.56
-6.00
-5.44
-4.92
-4.40
-3.76
-2.84
-1.52
0.17
2.14
4.19
6.10
7.64
8.63
9.00
8.82
8.28
7.68
7.25
7.00
6.76
6.22
5.10
3.38
1.24
-0.93
-2.78
-4.09
-4.85
-5.16
-5.15
-4.89
-4.39
-3.63
-2.63
-1.51
-0.38
0.66
1.60
2.44
3.23
3.97
4.59
5.02
5.17
5.04
4.66
4.11
3.43
2.64
1.74
0.71
-0.42
-1.56
-2.63
-3.50
-4.08
-4.35
-4.35
-4.19
-4.00
-3.89
-3.89
-3.99
-4.12
-4.27
-4.44
-4.72
-5.22
-6.02
-7.13
-8.48
-9.93
-11.24
-12.16
-12.44
-11.92
-10.52
-8.31
-5.52
-2.45
0.52
3.07
4.98
6.20
6.82
6.98
6.86
6.56
6.15
5.68
5.20
4.78
4.46
4.25
4.06
3.80
3.41
2.90
2.41
2.11
2.12
2.50
3.17
3.94
4.60
4.95
4.87
4.32
3.40
2.23
0.99
-0.19
-1.22
-2.07
-2.77
-3.36
-3.86
-4.26
-4.53
-4.62
-4.56
-4.40
-4.27
-4.30
-4.58
-5.19
-6.11
-7.32
-8.71
-10.07
-11.12
-11.55
-11.14
-9.82
-7.72
-5.15
-2.46
0.06
2.22
3.89
5.01
5.54
5.49
4.96
4.13
3.29
2.66
2.36
2.39
2.63
2.90
3.09
3.20
3.31
3.54
4.00
4.69
5.45
6.06
6.28
5.95
5.07
3.77
2.28
0.89
-0.22
-0.98
-1.44
-1.71
-1.89
-2.05
-2.16
-2.22
-2.24
-2.33
-2.62
-3.22
-4.12
-5.24
-6.47
-7.75
-9.09
-10.54
-12.02
-13.35
-14.17
-14.14
-13.03
-10.87
-7.97
-4.74
-1.60
1.18
3.48
5.30
6.66
7.54
7.90
7.68
6.93
5.82
4.61
3.62
3.06
3.01
3.34
3.87
4.37
4.72
4.91
4.99
5.03
5.05
5.01
4.87
4.58
4.17
3.67
3.12
2.54
1.91
1.27
0.68
0.22
-0.08
-0.30
-0.58
-1.08
-1.91
-3.02
-4.23
-5.36
-6.28
-7.01
-7.71
-8.59
-9.80
-11.27
-12.76
-13.88
-14.22
-13.51
-11.71
-9.06
-5.95
-2.82
-0.08
2.08
3.62
4.61
5.15
5.35
5.26
4.94
4.48
4.03
3.72
3.68
3.89
4.25
4.61
4.85
4.95
5.00
5.14
5.48
6.01
6.65
7.17
7.39
7.18
6.54
5.57
4.48
3.46
2.66
2.07
1.59
1.06
0.35
-0.56
-1.56
-2.47
-3.15
-3.60
-3.96
-4.45
-5.32
-6.68
-8.45
-10.46
-12.51
-14.37
-15.81
-16.60
-16.50
-15.36
-13.20
-10.25
-6.96
-3.81
-1.16
0.90
2.47
3.76
4.91
5.92
6.71
7.17
7.33
7.27
7.14
7.01
6.91
6.82
6.77
6.82
7.02
7.35
7.68
7.83
7.67
7.20
6.53
5.83
5.25
4.83
4.51
4.26
4.05
3.92
3.85
3.82
3.72
3.45
2.98
2.37
1.76
1.26
0.93
0.75
0.61
0.36
-0.13
-0.94
-2.08
-3.44
-4.84
-5.94
-6.41
-6.01
-4.66
-2.56
-0.11
2.25
4.15
5.44
6.18
6.55
6.72
6.74
6.56
6.13
5.49
4.74
4.07
3.65
3.54
3.70
4.04
4.48
4.96
5.45
5.90
6.26
6.45
6.42
6.18
5.78
5.32
4.93
4.74
4.82
5.14
5.63
6.14
6.50
6.63
6.55
6.39
6.25
6.20
6.26
6.50
7.01
7.82
8.88
10.05
11.11
11.84
12.06
11.83
11.40
11.25
11.75
13.19
15.77
19.52
24.25
29.53
34.94
40.16
45.04
49.24
52.47
54.83
56.64
58.10
58.98
58.70
56.53
51.88
43.89
32.54
19.43
7.36
-1.11
-4.79
-4.07
-0.58
3.60
5.50
3.16
-3.17
-11.31
-18.79
-24.13
-26.78
-27.07
-26.17
-27.59
-35.14
-50.84
-74.10
-102.85
-134.41
-165.37
-191.91
-200.43
-181.03
-136.28
-79.64
-24.65
20.62
52.61
70.68
76.10
71.36
57.96
37.49
13.00
-10.83
-29.18
-39.81
-41.72
-36.12
-26.17
-16.96
-12.46
-13.07
-15.51
-15.43
-10.08
0.80
15.14
29.99
42.46
51.18
56.82
61.13
65.54
70.31
74.85
78.13
79.29
77.74
73.57
67.78
62.05
57.93
56.22
56.88
59.03
61.22
61.94
60.15
55.62
48.76
40.28
30.78
20.87
11.27
2.94
-2.77
-4.26
-0.22
9.69
24.37
41.37
57.58
70.29
77.87
80.53
80.25
79.88
81.55
85.60
90.21
92.12
87.84
73.95
48.37
10.93
-36.47
-90.24
-145.11
-194.42
-231.49
-251.86
-256.81
-251.76
-243.01
-234.36
-226.32
-217.27
-205.63
-191.64
-177.53
-168.23
-166.26
-168.68
-168.09
-157.53
-134.61
-102.27
-66.30
-32.29
-6.86
6.00
5.81
-5.52
-26.84
-58.98
-103.51
-160.58
-207.98
-227.09
-215.83
-188.92
-161.19
-137.39
-113.88
-84.33
-44.31
5.69
56.98
98.79
124.42
134.62
134.87
132.06
129.53
127.27
123.29
113.30
95.20
71.23
47.54
29.94
21.03
20.00
24.52
32.52
41.87
52.36
63.41
76.17
91.16
107.42
123.06
136.53
147.27
154.98
159.88
162.62
164.36
165.61
166.07
164.89
161.37
155.22
146.40
135.15
121.98
107.64
92.57
76.73
59.90
41.92
22.95
3.62
-15.31
-33.28
-49.93
-65.29
-79.53
-92.78
-104.91
-115.52
-123.94
-129.61
-132.41
-132.55
-130.49
-126.64
-121.12
-113.91
-104.97
-94.07
-81.16
-66.58
-50.90
-34.68
-18.34
-2.31
12.90
26.60
38.91
50.03
59.67
66.98
71.14
71.87
69.34
63.87
55.75
46.92
39.29
33.39
28.18
22.36
15.30
7.02
-2.40
-12.92
-21.85
-26.69
-27.58
-27.78
-31.00
-38.99
-50.53
-61.80
-67.56
-59.26
-30.32
20.27
87.50
164.21
244.15
322.87
396.84
439.55
429.52
366.15
271.53
171.63
82.80
11.12
-43.04
-81.98
-108.52
-122.08
-121.88
-109.16
-88.95
-64.68
-38.18
-10.03
19.40
49.56
81.31
114.15
144.66
166.41
173.64
163.58
137.06
94.19
40.44
-15.84
-67.18
-109.03
-140.48
-161.20
-170.25
-166.66
-151.34
-127.67
-101.03
-77.13
-59.97
-51.76
-51.16
-54.68
-59.60
-66.04
-76.29
-92.79
-115.79
-142.61
-171.03
-198.36
-222.27
-241.08
-253.81
-259.29
-256.28
-243.96
-222.84
-197.87
-174.22
-155.19
-141.48
-132.58
-128.00
-127.74
-131.53
-122.15
-90.19
-37.50
24.83
84.98
134.40
167.98
183.95
184.19
173.61
155.53
133.23
109.74
88.06
70.76
59.89
56.78
61.27
71.00
79.77
81.94
74.82
59.80
40.99
23.11
9.92
3.08
2.05
2.97
3.04
0.60
-4.16
-9.73
-13.99
-14.93
-11.53
-4.21
4.61
12.38
17.55
20.49
23.04
26.91
33.19
41.65
51.22
60.46
68.40
74.04
75.94
72.05
60.49
40.91
15.27
-12.29
-36.53
-52.63
-57.72
-51.34
-35.44
-13.89
8.38
26.53
37.11
39.34
35.18
28.28
22.23
19.04
18.66
19.67
20.70
20.71
19.69
18.10
16.22
13.88
10.64
6.07
0.33
-5.75
-10.94
-14.11
-14.89
-13.92
-12.49
-11.92
-12.77
-14.51
-15.87
-15.60
-13.12
-8.84
-3.96
0.21
2.79
3.61
3.23
2.44
1.95
1.98
2.40
2.93
3.33
3.49
3.55
3.91
5.00
7.00
9.49
11.82
13.47
14.24
14.27
13.89
13.75
14.50
16.36
18.51
19.69
18.52
13.91
5.33
-6.67
-20.12
-32.13
-39.96
-42.67
-41.08
-37.43
-34.42
-33.90
-35.63
-36.92
-33.93
-21.09
2.02
30.40
56.98
76.47
85.93
83.59
68.14
39.85
2.06
-38.26
-71.09
-86.56
-79.35
-51.97
-14.13
21.26
43.43
47.67
35.87
14.62
-8.32
-27.34
-40.22
-47.15
-49.23
-47.08
-40.87
-31.15
-19.47
-8.35
-0.84
0.78
-3.75
-12.65
-22.86
-31.60
-37.77
-41.99
-45.78
-49.89
-53.88
-54.81
-50.09
-39.07
-24.03
-9.73
-1.15
-0.90
-7.71
-16.92
-22.45
-20.17
-9.53
6.47
22.84
35.00
40.59
39.97
35.65
30.83
27.59
26.48
26.88
27.98
29.53
31.95
35.61
38.96
41.06
40.70
36.86
29.48
19.45
8.50
-0.62
-6.59
-8.84
-7.79
-4.68
-1.68
-1.01
-4.57
-12.73
-23.68
-33.90
-39.28
-36.58
-24.19
-3.18
23.23
50.13
73.04
89.69
100.69
109.17
115.16
120.46
126.40
132.96
137.36
135.24
122.59
96.87
57.73
7.31
-49.26
-105.09
-147.29
-165.45
-158.39
-133.30
-100.16
-67.34
-40.04
-20.23
-8.24
-3.70
-6.74
-17.10
-32.76
-50.02
-65.21
-75.11
-77.58
-72.47
-61.47
-48.02
-35.81
-27.09
-22.27
-20.39
-20.11
-20.25
-20.34
-20.47
-21.06
-22.24
-23.20
-22.68
-19.82
-14.64
-8.02
-1.20
4.84
9.91
14.28
18.40
22.35
25.71
27.94
28.65
27.99
26.64
25.95
26.90
29.52
32.71
34.89
34.82
32.21
27.88
23.31
20.62
21.14
24.80
30.25
35.95
40.64
43.23
42.27
32.49
11.61
-16.82
-43.04
-55.85
-47.93
-19.04
24.02
70.09
107.72
129.75
134.22
123.73
103.00
77.20
50.67
26.84
8.24
-3.56
-7.29
-4.53
1.71
6.18
4.86
-4.18
-20.06
-39.55
-58.50
-73.15
-81.81
-84.55
-82.51
-76.53
-66.81
-53.45
-37.60
-22.27
-10.37
-4.48
-4.94
-9.33
-13.05
-11.46
-2.15
13.66
31.03
43.38
44.95
33.14
9.30
-21.64
-52.84
-77.91
-92.20
-93.71
-83.59
-65.75
-45.25
-26.44
-11.60
-0.80
7.22
13.67
18.82
22.03
22.71
21.34
19.56
19.28
21.42
25.10
28.14
28.21
24.15
16.63
7.85
0.36
-4.13
-5.38
-4.40
-2.74
-1.65
-1.58
-2.14
-2.55
-2.14
-0.81
1.00
2.53
3.09
2.43
0.72
-1.48
-3.58
-5.16
-6.11
-6.54
-6.61
-6.44
-6.08
-5.60
-5.08
-4.65
-4.45
-4.48
-4.60
-4.51
-3.90
-2.60
-0.70
1.51
3.62
5.29
6.38
6.98
7.32
7.64
8.10
8.68
9.21
9.47
9.19
8.18
6.37
3.82
0.81
-2.26
-4.86
-6.54
-7.01
-6.26
-4.51
-2.12
0.52
3.08
5.31
7.01
8.06
8.42
8.16
7.45
6.50
5.52
4.70
4.15
3.95
4.14
4.70
5.47
6.22
6.67
6.61
5.98
4.92
3.70
2.63
1.98
1.87
2.30
3.14
4.26
5.48
6.72
7.98
9.32
10.79
12.38
13.96
15.31
16.13
16.22
15.45
13.85
11.53
8.69
5.54
2.22
-1.17
-4.62
-8.16
-11.79
-15.37
-18.67
-21.35
-23.11
-23.74
-23.26
-21.80
-19.58
-16.80
-13.62
-10.22
-6.80
-3.65
-1.07
0.72
1.68
1.92
1.71
1.32
0.97
0.82
0.92
1.27
1.83
2.51
3.22
3.88
4.44
4.85
5.17
5.45
5.80
6.26
6.85
7.45
7.91
8.04
7.70
6.92
5.81
4.55
3.31
2.17
1.12
0.13
-0.79
-1.59
-2.18
-2.49
-2.57
-2.58
-2.75
-3.27
-4.23
-5.54
-7.04
-8.50
-9.82
-11.00
-12.17
-13.54
-15.24
-17.29
-19.50
-21.50
-22.87
-23.23
-22.40
-20.42
-17.58
-14.29
-10.95
-7.81
-4.98
-2.33
0.40
3.55
7.47
12.38
18.22
24.58
30.68
35.54
38.23
38.12
35.14
29.67
22.39
14.03
5.22
-3.52
-11.75
-19.07
-25.23
-30.15
-34.05
-37.32
-40.30
-43.00
-45.00
-45.51
-43.67
-38.87
-31.11
-21.07
-10.02
0.55
9.34
15.65
19.43
21.16
21.52
21.17
20.57
19.99
19.55
19.25
18.96
18.49
17.73
16.78
16.10
16.29
17.84
20.82
24.77
28.84
32.22
34.44
35.48
35.60
35.06
33.82
31.45
27.37
21.15
12.93
3.64
-5.17
-11.69
-14.41
-12.68
-6.88
1.70
11.20
19.78
26.06
29.67
31.46
33.45
38.15
47.47
61.54
78.15
93.12
101.91
101.54
91.94
76.08
58.87
45.31
38.76
39.76
45.76
51.68
51.17
38.65
11.51
-28.20
-73.70
-115.42
-144.31
-155.16
-148.26
-128.54
-102.72
-76.27
-51.82
-29.63
-9.50
7.65
19.60
24.20
21.38
14.11
7.72
7.62
16.87
34.79
57.44
79.49
96.25
104.74
103.56
92.32
71.29
41.96
7.70
-26.42
-55.14
-75.84
-89.63
-100.88
-114.57
-133.79
-156.72
-176.25
-182.46
-166.96
-127.12
-66.90
4.77
77.58
142.51
194.58
233.35
261.64
283.14
299.65
312.26
322.46
333.40
346.96
363.43
380.43
393.35
396.75
383.72
352.54
308.08
261.38
219.09
183.60
153.58
126.71
101.15
70.19
31.25
-12.78
-51.84
-85.13
-115.83
-148.43
-184.88
-225.17
-278.30
-348.07
-429.99
-507.17
-575.92
-638.21
-698.99
-761.26
-826.86
-909.03
-1012.05
-1125.59
-1219.70
-1280.49
-1303.86
-1294.52
-1259.95
-1128.06
-880.45
-560.85
-304.47
-122.22
1.92
98.76
176.92
240.44
292.24
322.46
327.92
316.35
311.27
318.42
335.18
355.07
374.74
393.06
400.52
393.37
376.83
369.05
375.19
394.36
421.71
452.72
481.84
496.35
487.11
452.80
404.27
348.58
292.47
241.85
202.61
178.23
165.71
160.28
157.56
156.12
151.20
138.33
115.03
82.47
44.44
4.72
-32.66
-63.85
-85.24
-96.30
-98.39
-93.97
-85.50
-75.08
-64.19
-53.75
-44.15
-35.55
-27.81
-20.58
-13.38
-5.68
2.77
11.74
20.50
27.93
32.78
33.93
30.65
22.74
10.61
-4.86
-22.62
-41.78
-61.98
-83.39
-106.38
-131.12
-157.19
-183.46
-208.20
-229.30
-244.41
-251.31
-248.39
-235.08
-212.24
-181.89
-146.61
-108.64
-69.41
-29.71
9.62
47.12
80.70
108.39
129.19
143.67
153.63
161.17
167.69
173.38
177.47
179.03
177.75
174.25
169.83
165.79
162.86
160.94
159.34
157.28
154.23
150.09
145.05
139.33
133.06
126.34
119.34
112.36
105.81
99.95
94.95
90.59
86.37
81.82
76.62
70.87
64.76
58.35
51.67
45.11
39.29
34.82
32.06
30.80
30.59
30.70
30.42
29.26
27.40
24.85
21.07
15.08
5.90
-6.19
-19.84
-32.92
-43.12
-47.38
-44.25
-34.58
-20.97
-6.95
5.90
17.02
26.32
34.06
43.25
55.91
71.99
89.67
105.73
120.17
133.52
145.74
156.53
169.70
187.56
209.35
231.77
249.35
261.99
270.70
275.94
277.98
282.34
292.51
307.92
324.54
335.47
340.72
341.76
339.41
298.41
204.16
69.22
-74.13
-179.33
-249.90
-295.67
-324.59
-345.12
-360.10
-365.32
-358.29
-340.88
-318.79
-300.64
-287.60
-278.54
-272.09
-266.76
-257.51
-241.50
-219.75
-196.28
-177.33
-163.39
-153.19
-145.55
-139.41
-131.74
-121.02
-108.02
-95.22
-86.34
-81.26
-78.72
-77.48
-76.36
-73.42
-67.58
-59.15
-49.54
-41.02
-34.20
-29.10
-25.59
-23.28
-21.29
-18.94
-16.03
-12.84
-10.05
-7.75
-5.86
-4.26
-2.76
-1.29
0.12
1.40
2.45
3.24
3.79
4.15
4.41
4.58
4.65
4.56
4.29
3.85
3.27
2.60
1.90
1.20
0.53
-0.05
-0.52
-0.88
-1.16
-1.42
-1.76
-2.27
-2.98
-3.84
-4.65
-5.13
-4.97
-4.01
-2.30
-0.12
2.14
4.13
5.68
6.80
7.62
8.23
8.64
8.80
8.71
8.45
8.19
8.06
8.10
8.21
8.26
8.11
7.78
7.38
7.03
6.79
6.64
6.48
6.19
5.72
5.08
4.32
3.52
2.72
1.98
1.29
0.64
-0.01
-0.71
-1.46
-2.25
-3.05
-3.88
-4.76
-5.78
-6.96
-8.23
-9.42
-10.30
-10.66
-10.40
-9.52
-8.13
-6.37
-4.40
-2.34
-0.33
1.50
3.04
4.24
5.12
5.75
6.19
6.52
6.74
6.83
6.81
6.72
6.61
6.56
6.52
6.43
6.21
5.81
5.28
4.75
4.34
4.09
3.95
3.80
3.50
3.02
2.41
1.79
1.26
0.83
0.41
-0.11
-0.81
-1.70
-2.70
-3.73
-4.75
-5.78
-6.85
-7.95
-8.96
-9.70
-9.97
-9.65
-8.75
-7.33
-5.53
-3.47
-1.29
0.83
2.71
4.18
5.17
5.69
5.84
5.81
5.71
5.63
5.59
5.60
5.64
5.71
5.76
5.75
5.66
5.55
5.48
5.55
5.77
6.06
6.25
6.21
5.83
5.15
4.24
3.27
2.33
1.51
0.79
0.12
-0.56
-1.29
-2.08
-2.91
-3.73
-4.49
-5.16
-5.70
-6.12
-6.49
-6.91
-7.45
-8.17
-8.94
-9.56
-9.77
-9.35
-8.26
-6.63
-4.70
-2.74
-0.92
0.70
2.17
3.53
4.74
5.70
6.25
6.30
5.93
5.33
4.79
4.55
4.67
5.04
5.46
5.74
5.80
5.65
5.40
5.10
4.78
4.42
4.03
3.61
3.20
2.84
2.55
2.31
2.11
1.89
1.61
1.20
0.63
-0.10
-0.90
-1.67
-2.31
-2.76
-3.06
-3.28
-3.55
-4.00
-4.67
-5.51
-6.35
-7.00
-7.24
-6.98
-6.27
-5.19
-3.89
-2.42
-0.78
1.00
2.84
4.58
5.97
6.82
7.07
6.76
6.09
5.26
4.48
3.89
3.58
3.57
3.80
4.20
4.66
5.06
5.31
5.35
5.14
4.68
4.05
3.34
2.69
2.14
1.71
1.34
0.97
0.59
0.22
-0.11
-0.37
-0.62
-0.96
-1.48
-2.19
-2.99
-3.73
-4.26
-4.54
-4.62
-4.62
-4.69
-4.92
-5.30
-5.79
-6.32
-6.80
-7.14
-7.26
-7.04
-6.41
-5.40
-4.11
-2.69
-1.32
-0.11
0.91
1.75
2.41
2.88
3.15
3.20
3.08
2.87
2.65
2.45
2.28
2.12
1.98
1.91
1.93
2.06
2.23
2.35
2.34
2.17
1.87
1.55
1.28
1.13
1.09
1.08
1.06
0.95
0.76
0.46
0.04
-0.52
-1.21
-1.97
-2.70
-3.25
-3.53
-3.57
-3.48
-3.49
-3.81
-4.52
-5.54
-6.64
-7.51
-7.87
-7.56
-6.60
-5.15
-3.42
-1.63
0.08
1.62
2.94
4.02
4.84
5.43
5.80
6.01
6.08
5.99
5.73
5.29
4.70
4.09
3.56
3.22
3.12
3.24
3.53
3.89
4.22
4.40
4.33
4.01
3.48
2.89
2.37
2.00
1.81
1.75
1.75
1.75
1.72
1.63
1.45
1.15
0.75
0.28
-0.19
-0.60
-0.95
-1.30
-1.70
-2.22
-2.87
-3.65
-4.51
-5.41
-6.27
-6.99
-7.37
-7.25
-6.54
-5.28
-3.66
-1.93
-0.33
1.02
2.11
2.98
3.65
4.14
4.43
4.51
4.42
4.23
4.03
3.87
3.76
3.71
3.66
3.59
3.49
3.38
3.33
3.37
3.52
3.72
3.87
3.84
3.58
3.12
2.56
2.04
1.65
1.39
1.24
1.11
0.95
0.73
0.45
0.10
-0.29
-0.68
-1.02
-1.26
-1.42
-1.53
-1.67
-1.85
-2.05
-2.21
-2.28
-2.24
-2.13
-2.03
-1.95
-1.85
-1.60
-1.04
-0.06
1.37
3.19
5.31
7.62
10.02
12.47
14.89
17.20
19.34
21.28
23.09
24.94
27.07
29.66
32.77
36.35
40.25
44.38
48.72
53.40
58.61
64.50
71.13
78.34
85.75
93.00
99.90
106.63
113.85
122.40
132.91
145.32
158.63
171.41
182.45
191.42
199.13
207.22
217.53
231.33
248.73
268.23
286.94
301.03
306.49
300.13
280.60
248.91
207.97
161.61
112.89
63.45
13.47
-37.73
-91.19
-147.88
-208.26
-271.52
-334.60
-392.22
-436.43
-458.97
-454.96
-426.05
-380.59
-330.64
-287.10
-255.75
-237.55
-228.55
-223.64
-220.01
-218.61
-222.37
-233.01
-249.04
-266.69
-284.83
-304.22
-327.45
-357.44
-394.73
-435.06
-469.50
-487.45
-481.56
-453.70
-410.43
-359.24
-305.20
-249.72
-191.53
-129.09
-62.86
19.25
112.79
202.49
272.91
319.06
346.41
363.06
373.62
378.33
375.29
360.92
336.07
305.96
277.08
253.85
238.28
228.12
220.77
213.94
203.91
188.93
169.44
147.02
123.43
100.09
78.11
58.64
42.38
28.18
15.06
4.33
-3.14
-7.23
-8.70
-8.85
-8.77
-9.29
-11.33
-14.93
-19.28
-23.35
-26.31
-27.77
-27.93
-27.07
-25.60
-24.08
-22.71
-21.37
-19.89
-18.12
-16.08
-13.95
-11.91
-10.08
-8.44
-6.83
-5.06
-3.13
-1.11
0.85
2.54
3.84
4.68
5.08
5.12
4.90
4.47
3.89
3.20
2.45
1.69
1.04
0.62
0.61
1.06
1.99
3.24
4.63
5.96
7.01
7.68
7.93
7.80
7.39
6.86
6.34
5.90
5.54
5.19
4.83
4.45
4.12
3.95
3.98
4.21
4.51
4.76
4.85
4.78
4.61
4.46
4.43
4.56
4.78
4.98
5.02
4.84
4.46
3.96
3.44
2.96
2.53
2.12
1.69
1.27
0.87
0.54
0.24
-0.09
-0.54
-1.13
-1.79
-2.40
-2.87
-3.21
-3.56
-4.07
-4.80
-5.68
-6.41
-6.69
-6.26
-5.04
-3.13
-0.73
1.89
4.46
6.71
8.46
9.60
10.21
10.57
11.07
12.09
13.79
16.06
18.57
20.94
22.92
24.50
25.91
27.48
29.54
32.32
35.97
40.51
45.73
51.10
55.84
59.29
61.31
62.69
65.02
70.08
78.91
90.98
104.35
116.38
124.84
128.83
128.96
127.02
125.14
125.10
127.67
132.59
138.50
142.98
142.81
134.54
115.51
84.93
44.70
-0.95
-46.22
-85.17
-113.36
-128.91
-132.61
-127.15
-116.11
-102.90
-90.90
-82.38
-78.24
-78.17
-81.05
-85.38
-89.30
-91.52
-91.18
-89.61
-88.22
-87.57
-87.34
-86.93
-86.37
-85.88
-86.54
-88.76
-94.00
-101.84
-109.81
-115.26
-117.12
-116.97
-116.97
-119.71
-125.60
-135.87
-149.88
-165.43
-180.65
-194.95
-209.58
-225.09
-242.25
-240.58
-208.09
-146.87
-72.18
-2.33
50.64
75.17
75.09
55.39
21.86
-22.35
-73.87
-122.31
-158.13
-173.58
-165.11
-132.80
-82.08
-20.66
41.26
96.15
141.78
180.43
216.95
251.92
281.20
296.29
290.65
263.16
220.56
174.79
137.22
114.06
104.03
101.17
98.16
90.98
79.62
67.40
58.44
54.79
55.61
58.68
61.25
62.37
63.11
65.00
68.88
74.20
79.01
80.91
78.06
70.25
59.04
47.06
36.82
29.61
25.12
21.71
17.36
10.09
-0.51
-13.66
-28.17
-43.13
-57.95
-72.06
-84.38
-93.14
-96.42
-92.80
-82.31
-66.61
-48.60
-31.44
-17.65
-8.58
-4.36
-4.29
-7.28
-12.23
-18.24
-24.51
-30.31
-34.93
-37.83
-38.74
-37.78
-35.41
-32.36
-29.33
-26.80
-24.84
-23.15
-21.29
-18.94
-16.07
-12.97
-10.09
-7.81
-6.25
-5.23
-4.42
-3.53
-2.42
-1.16
0.10
1.14
1.86
2.27
2.44
2.50
2.55
2.66
2.80
2.86
2.69
2.17
1.27
0.10
-1.12
-2.15
-2.78
-2.87
-2.36
-1.33
0.07
1.65
3.21
4.57
5.65
6.46
7.04
7.44
7.67
7.68
7.44
6.98
6.44
5.99
5.78
5.83
6.04
6.24
6.26
6.07
5.73
5.39
5.18
5.16
5.27
5.42
5.52
5.53
5.45
5.29
5.07
4.79
4.44
4.08
3.70
3.31
2.86
2.32
1.68
0.97
0.26
-0.40
-0.97
-1.48
-1.93
-2.34
-2.67
-2.96
-3.25
-3.62
-4.11
-4.63
-5.00
-4.99
-4.47
-3.43
-2.03
-0.47
1.06
2.50
3.81
4.98
5.98
6.66
6.89
6.65
6.12
5.66
5.74
6.61
8.27
10.34
12.25
13.46
13.76
13.42
13.11
13.60
15.33
18.22
21.62
24.57
26.16
26.03
24.57
22.92
22.48
24.19
28.28
34.27
40.92
46.60
49.80
49.74
46.83
42.85
40.18
41.48
48.41
60.11
72.50
79.15
73.58
52.00
15.05
-32.48
-82.26
-124.80
-152.45
-161.81
-154.06
-133.69
-106.66
-78.78
-55.44
-39.83
-32.51
-31.88
-35.38
-39.95
-42.50
-40.76
-29.74
-10.48
10.19
24.26
28.37
24.26
16.57
10.08
7.61
9.36
12.72
15.33
16.68
16.96
17.58
19.04
20.30
19.27
13.54
0.40
-21.03
-49.64
-78.86
-105.24
-127.95
-146.98
-160.65
-164.63
-154.56
-128.08
-87.28
-38.99
6.48
40.59
59.98
67.40
70.57
75.60
85.43
98.03
110.18
115.38
108.41
87.47
52.98
12.76
-23.71
-48.25
-56.62
-48.95
-29.66
-4.47
21.40
44.26
61.99
72.71
75.15
69.05
55.94
38.82
22.14
10.68
8.43
16.42
32.41
51.38
66.99
73.96
69.69
55.66
36.79
19.31
8.25
5.33
8.76
14.60
19.05
20.01
17.52
12.86
7.37
1.82
-3.70
-9.22
-14.70
-19.76
-24.04
-27.40
-29.94
-31.90
-33.61
-35.54
-37.16
-38.40
-39.31
-39.89
-39.90
-38.87
-36.40
-32.48
-27.58
-22.54
-18.33
-15.46
-13.82
-12.86
-11.95
-10.67
-9.02
-7.26
-5.70
-4.62
-4.01
-3.58
-2.93
-1.74
0.10
2.40
4.78
6.80
8.07
8.43
8.04
7.22
6.37
5.75
5.45
5.33
5.21
4.88
4.26
3.47
2.74
2.30
2.30
2.67
3.18
3.52
3.42
2.77
1.74
0.67
-0.03
-0.02
0.85
2.50
4.72
7.20
9.75
12.33
15.05
18.12
21.69
25.65
29.64
33.10
35.55
36.80
37.21
37.52
38.57
40.94
44.55
48.68
52.25
54.34
54.59
53.45
51.88
50.84
50.75
50.98
49.81
44.83
33.38
13.18
-17.01
-56.75
-103.25
-151.18
-193.31
-222.05
-231.75
-220.71
-191.93
-152.02
-108.86
-68.95
-35.84
-10.11
9.36
23.94
34.44
41.32
45.26
47.57
49.88
53.43
58.53
64.52
70.29
74.88
77.96
79.79
80.79
81.22
80.99
79.87
77.78
75.19
73.05
72.56
74.44
78.28
82.10
82.70
76.70
61.98
39.04
11.31
-15.68
-36.05
-45.41
-42.31
-28.57
-8.81
10.84
24.47
28.05
20.74
5.38
-12.29
-25.48
-28.87
-20.65
-3.37
17.10
33.94
42.13
40.08
29.96
16.25
3.56
-5.14
-9.34
-10.42
-10.59
-11.82
-15.42
-21.73
-30.22
-39.70
-48.59
-55.30
-58.51
-57.41
-51.57
-41.04
-25.66
-5.38
18.76
43.79
64.56
75.52
73.04
57.05
30.26
-2.26
-35.07
-64.06
-86.73
-102.28
-109.89
-108.58
-98.39
-83.08
-67.51
-55.32
-47.16
-40.04
-30.61
-15.95
4.34
26.86
42.94
45.08
30.39
0.78
-38.38
-83.62
-131.62
-178.67
-220.48
-255.47
-280.74
-292.62
-289.12
-271.23
-246.35
-222.19
-203.35
-168.78
-109.64
-33.82
40.45
90.47
120.71
136.49
141.49
140.20
135.04
124.62
108.90
90.49
73.92
64.70
64.11
72.14
87.69
107.82
125.62
135.14
134.02
124.08
110.69
97.78
88.74
85.49
87.53
90.86
91.49
87.37
78.76
67.75
55.27
42.00
28.35
14.47
0.01
-14.20
-25.74
-31.47
-28.81
-18.08
-2.04
15.01
28.68
35.84
35.79
30.12
21.45
12.02
2.41
-7.97
-19.97
-33.58
-47.53
-59.84
-69.14
-75.76
-81.70
-89.32
-99.30
-109.48
-115.26
-111.86
-96.87
-71.60
-40.60
-9.64
16.39
34.47
43.46
43.45
35.57
22.30
7.54
-4.06
-8.74
-5.28
4.39
16.20
25.94
31.10
31.52
28.64
24.19
19.25
14.17
9.13
4.67
1.67
0.99
2.89
6.68
10.95
14.06
14.88
13.17
9.67
5.69
2.54
1.02
1.16
2.32
3.59
4.17
3.74
2.45
0.79
-0.73
-1.82
-2.56
-3.23
-4.17
-5.54
-7.26
-9.05
-10.59
-11.66
-12.16
-12.07
-11.41
-10.10
-8.05
-5.25
-1.86
1.74
5.06
7.61
9.14
9.70
9.66
9.53
9.78
10.59
11.83
13.10
13.95
14.12
13.70
13.15
13.12
14.11
16.26
19.14
21.89
23.60
23.75
22.46
20.44
18.61
17.64
17.76
18.83
20.62
22.99
25.73
28.17
28.89
25.94
17.54
2.81
-17.90
-43.22
-71.38
-100.52
-128.51
-152.47
-168.47
-172.15
-160.21
-132.24
-91.68
-45.56
-2.49
30.06
48.37
53.63
51.26
48.58
51.70
63.15
81.22
101.53
119.03
129.83
132.05
125.83
112.70
94.90
75.48
57.77
45.63
41.92
47.08
58.53
71.45
80.39
80.62
70.13
49.41
22.45
-5.14
-27.79
-41.69
-45.16
-38.69
-25.01
-7.29
10.79
27.42
41.88
54.09
64.03
72.72
82.39
95.57
115.27
133.23
140.10
129.13
100.15
58.18
11.27
-29.65
-62.20
-85.25
-100.65
-110.66
-118.26
-123.63
-127.00
-127.36
-123.74
-116.82
-108.01
-100.50
-95.17
-91.09
-87.24
-83.17
-78.74
-74.59
-71.30
-67.47
-61.30
-48.30
-21.38
19.07
63.80
99.81
115.74
106.47
77.84
35.82
-10.45
-51.90
-83.63
-105.77
-117.09
-118.97
-114.10
-100.15
-80.59
-59.94
-40.51
-21.68
-1.52
20.77
41.58
57.70
66.93
68.60
66.03
64.47
68.09
76.62
88.50
98.70
97.42
76.82
37.00
-10.09
-47.77
-64.28
-57.80
-35.03
-7.36
15.44
29.26
34.82
35.45
33.36
28.21
18.31
3.17
-16.30
-37.71
-57.97
-74.61
-85.85
-90.30
-86.79
-74.72
-54.95
-29.10
-0.73
26.13
47.99
62.60
69.29
68.50
59.95
46.13
29.03
10.50
-6.26
-16.85
-17.26
-6.12
13.47
34.96
50.81
55.44
47.93
32.43
15.80
4.04
0.12
3.32
10.52
18.21
23.32
23.53
17.31
3.90
-16.45
-39.34
-58.56
-67.89
-63.65
-46.60
-21.53
4.61
26.91
42.26
50.16
51.82
49.17
43.89
36.99
29.04
20.64
12.38
4.77
-1.62
-6.59
-10.26
-12.92
-15.10
-17.25
-18.87
-19.76
-20.09
-20.01
-19.80
-19.72
-20.03
-20.85
-22.17
-23.65
-24.83
-25.12
-23.90
-20.94
-16.54
-11.63
-7.38
-4.67
-3.68
-3.91
-4.48
-4.52
-3.79
-2.70
-2.08
-2.63
-4.48
-7.11
-9.63
-11.28
-11.63
-10.70
-8.79
-6.24
-3.24
0.18
4.06
8.29
12.56
16.46
19.65
22.04
23.66
24.59
24.91
24.66
23.72
21.85
18.97
15.48
12.19
9.90
9.18
10.22
12.86
16.40
19.54
21.08
20.71
18.96
16.66
14.60
13.44
13.87
16.13
19.56
23.11
26.08
28.18
29.35
29.99
31.32
35.27
42.99
53.22
62.36
66.05
60.10
41.30
8.21
-38.56
-93.33
-144.82
-183.49
-207.79
-220.27
-221.01
-206.36
-172.52
-120.21
-56.30
7.80
60.32
94.05
108.50
107.87
97.10
79.63
57.83
34.74
14.11
-0.99
-9.76
-14.20
-18.28
-26.00
-38.78
-55.31
-70.46
-79.16
-78.42
-68.06
-50.02
-27.18
-2.28
22.94
47.68
71.50
92.13
104.71
103.42
84.50
49.16
4.64
-37.82
-67.30
-77.61
-69.89
-51.13
-30.38
-14.55
-6.15
-3.99
-5.40
-8.22
-11.45
-15.26
-19.46
-22.15
-19.70
-8.12
14.17
44.35
75.12
97.16
103.04
90.94
65.81
37.13
14.55
3.42
2.79
6.60
7.34
-0.17
-16.56
-38.33
-60.08
-77.17
-86.83
-87.80
-79.24
-60.48
-31.79
3.92
40.29
68.73
81.76
76.59
56.94
31.73
10.95
1.17
3.05
12.06
21.67
26.83
25.76
19.54
10.28
-0.32
-10.92
-19.42
-22.45
-16.42
-0.07
23.40
46.29
59.44
56.77
38.56
11.56
-14.69
-32.73
-40.64
-41.79
-41.51
-43.00
-45.59
-46.00
-41.20
-30.54
-15.64
1.28
18.89
37.03
55.55
73.15
87.09
94.36
93.29
84.61
70.75
54.54
38.02
22.37
8.49
-2.30
-8.58
-9.36
-5.21
1.20
5.98
5.90
0.03
-9.77
-19.68
-25.72
-24.51
-14.37
3.68
26.22
48.70
67.03
78.51
82.19
78.21
68.65
56.32
42.69
26.59
4.46
-27.98
-73.53
-131.39
-196.30
-257.31
-300.97
-316.63
-300.23
-254.68
-187.14
-105.90
-15.23
71.90
139.35
176.66
183.69
167.71
138.35
104.64
72.91
45.87
22.86
3.73
-9.81
-15.42
-12.15
-1.79
11.87
24.51
33.27
37.46
39.29
41.67
45.65
50.70
53.85
53.70
50.93
47.26
43.45
39.24
33.52
25.02
13.44
-0.16
-13.44
-24.16
-31.35
-35.51
-37.45
-37.64
-36.13
-33.05
-28.95
-24.51
-20.53
-17.60
-15.68
-14.42
-13.27
-11.87
-10.25
-8.76
-7.70
-7.19
-7.16
-7.40
-7.70
-7.86
-7.77
-7.36
-6.66
-5.66
-4.45
-3.15
-1.89
-0.82
-0.04
0.38
0.44
0.16
-0.35
-0.98
-1.57
-2.01
-2.26
-2.34
-2.25
-1.97
-1.42
-0.52
0.73
2.19
3.58
4.59
4.95
4.58
3.56
2.17
0.66
-0.75
-1.96
-2.99
-3.87
-4.63
-5.23
-5.63
-5.73
-5.49
-4.96
-4.25
-3.61
-3.31
-3.57
-4.46
-5.90
-7.63
-9.33
-10.68
-11.40
-11.31
-10.34
-8.48
-5.90
-2.87
0.25
3.10
5.40
7.02
7.92
8.16
7.79
6.91
5.64
4.18
2.77
1.66
0.99
0.74
0.80
0.99
1.22
1.49
1.88
2.49
3.30
4.17
4.85
5.10
4.75
3.77
2.28
0.54
-1.18
-2.63
-3.66
-4.23
-4.39
-4.30
-4.07
-3.81
-3.55
-3.32
-3.21
-3.36
-3.93
-4.99
-6.46
-8.13
-9.66
-10.76
-11.17
-10.80
-9.64
-7.77
-5.37
-2.70
-0.04
2.30
4.13
5.40
6.20
6.68
6.98
7.16
7.19
7.02
6.67
6.20
5.80
5.60
5.71
6.10
6.70
7.34
7.87
8.13
7.99
7.36
6.24
4.77
3.17
1.70
0.56
-0.15
-0.44
-0.39
-0.10
0.40
1.06
1.84
2.58
3.06
2.98
2.11
0.38
-2.11
-5.04
-8.02
-10.61
-12.51
-13.53
-13.60
-12.71
-10.87
-8.16
-4.74
-0.89
3.00
6.49
9.21
10.96
11.73
11.71
11.22
10.60
10.26
10.52
11.48
12.97
14.63
16.02
16.88
17.24
17.37
17.87
19.31
21.82
24.93
27.77
29.47
29.68
28.75
27.62
27.86
30.87
37.02
45.34
53.66
59.33
60.07
54.14
41.09
22.64
2.59
-14.07
-22.58
-19.43
-3.50
23.23
55.24
84.92
105.63
113.80
109.42
95.77
78.09
61.83
52.55
54.23
66.04
83.16
100.49
114.98
125.01
129.32
127.07
118.43
104.04
84.27
63.42
47.02
39.44
40.95
49.18
60.91
72.90
79.71
76.63
60.87
37.69
12.71
-12.19
-36.17
-58.44
-78.74
-101.59
-131.20
-168.85
-212.24
-254.27
-292.35
-325.07
-351.45
-372.23
-394.78
-426.19
-469.71
-523.59
-579.29
-634.59
-689.30
-743.14
-759.33
-714.18
-605.63
-454.56
-319.50
-205.54
-108.67
-24.75
56.62
136.56
208.82
268.25
313.65
348.69
380.44
406.64
424.15
434.15
440.56
443.25
439.26
423.69
391.75
344.01
279.89
203.99
127.45
63.95
23.18
8.95
17.95
41.42
70.68
96.18
113.25
122.84
128.40
132.01
133.90
132.86
127.27
116.79
100.08
76.85
48.51
18.23
-9.61
-30.18
-39.99
-38.59
-28.50
-14.73
-1.97
7.44
13.50
16.94
17.44
13.10
1.75
-16.72
-38.77
-57.62
-66.22
-60.33
-41.18
-14.98
9.69
25.25
27.91
18.18
-0.10
-21.70
-41.70
-56.67
-64.75
-65.47
-59.71
-49.17
-36.11
-22.40
-9.03
3.72
15.53
26.03
34.81
41.39
45.57
46.81
44.43
38.07
27.95
15.14
2.15
-7.26
-9.39
-1.40
16.75
42.96
73.77
104.47
129.35
143.35
143.65
130.79
108.95
83.74
60.74
43.31
35.42
37.06
43.59
49.15
47.75
40.61
29.08
12.14
-9.65
-37.75
-72.97
-112.91
-151.65
-182.29
-200.19
-206.45
-206.62
-207.80
-216.16
-234.55
-262.39
-297.04
-335.46
-374.58
-411.20
-440.35
-455.40
-450.59
-423.53
-376.46
-315.50
-248.20
-180.68
-116.68
-56.78
0.81
58.61
118.72
181.86
246.53
308.74
362.86
403.22
426.29
431.69
421.86
400.61
371.66
337.84
301.38
264.50
229.52
198.36
171.56
147.87
125.11
101.74
77.99
55.94
38.30
26.78
21.34
20.44
22.32
26.06
31.80
39.90
49.70
58.83
63.54
59.99
45.80
20.91
-12.42
-50.45
-89.05
-124.61
-154.38
-176.57
-190.18
-195.12
-192.26
-183.29
-170.25
-154.78
-137.51
-118.11
-95.85
-70.61
-43.40
-16.18
8.93
30.71
49.47
66.76
84.33
102.85
121.28
137.18
147.91
152.03
149.97
143.76
135.97
128.52
121.88
115.24
107.35
97.29
84.90
70.62
54.84
37.56
18.41
-2.62
-24.56
-45.24
-62.03
-72.89
-77.23
-76.01
-71.09
-64.26
-56.56
-48.35
-39.62
-30.38
-20.69
-10.68
-0.50
9.34
17.62
22.52
22.22
16.07
5.46
-6.33
-15.26
-18.53
-16.12
-11.18
-8.94
-14.70
-31.74
-60.23
-97.29
-138.10
-177.31
-210.20
-233.13
-243.43
-239.45
-221.10
-190.61
-152.99
-115.03
-82.84
-58.94
-41.02
-23.43
-1.19
26.08
53.11
71.81
76.28
66.35
47.65
27.92
12.87
4.13
0.77
2.56
11.93
32.56
65.53
105.98
143.40
166.02
166.48
145.45
110.87
73.51
42.08
20.25
6.97
-0.89
-5.83
-8.52
-8.29
-4.53
2.12
9.75
16.00
18.96
18.11
14.41
9.82
6.38
5.48
7.52
12.02
17.81
23.02
25.83
25.25
21.62
16.36
11.21
7.37
5.11
3.47
0.06
-7.78
-20.07
-33.38
-43.07
-45.78
-40.61
-28.48
-12.05
4.04
15.15
16.76
5.79
-19.08
-57.46
-107.35
-165.08
-218.35
-251.01
-251.30
-219.42
-166.82
-109.62
-61.61
-29.87
-12.34
-1.55
8.02
19.01
31.71
46.37
64.25
88.04
116.16
146.92
176.86
200.85
214.48
215.77
207.11
193.32
179.25
167.65
159.94
155.73
153.52
151.77
149.46
147.09
144.87
141.54
133.98
119.72
97.35
68.19
36.27
6.76
-15.27
-28.66
-36.90
-46.78
-63.75
-89.04
-116.51
-136.28
-149.03
-158.15
-168.90
-181.82
-197.63
-213.91
-226.71
-231.07
-224.15
-207.27
-184.71
-162.41
-143.75
-127.07
-99.47
-54.40
2.11
53.38
83.65
88.48
75.28
57.99
48.70
51.28
59.98
65.59
62.26
50.62
36.63
26.24
22.07
23.69
28.42
33.84
39.49
45.82
52.59
58.66
62.02
59.66
53.12
45.20
38.13
33.03
30.40
30.19
31.88
33.95
33.90
29.64
18.12
-1.89
-28.30
-55.47
-75.65
-81.94
-71.39
-46.63
-14.86
14.36
33.34
39.10
33.81
22.66
10.71
0.48
-8.40
-17.60
-28.26
-39.62
-49.36
-54.91
-54.99
-50.29
-42.79
-34.68
-26.85
-18.99
-10.06
0.65
12.57
23.60
30.94
32.24
26.65
15.38
1.17
-12.62
-23.16
-28.98
-30.22
-28.10
-24.15
-19.48
-14.28
-8.07
-0.19
9.52
20.35
30.73
38.73
42.74
41.98
36.75
28.27
18.15
8.01
-0.93
-7.88
-12.47
-14.61
-14.44
-12.28
-8.68
-4.38
-0.20
3.16
5.21
5.85
5.32
4.13
2.85
1.97
1.73
2.17
3.16
4.51
6.03
7.52
8.72
9.32
8.95
7.35
4.46
0.43
-4.34
-9.32
-13.91
-17.50
-19.59
-19.81
-18.05
-14.51
-9.72
-4.39
0.73
5.08
8.32
10.44
11.59
12.05
12.05
11.75
11.22
10.46
9.49
8.37
7.23
6.25
5.62
5.44
5.67
6.17
6.65
6.88
6.68
5.99
4.86
3.39
1.74
0.11
-1.22
-1.98
-2.01
-1.43
-0.62
-0.19
-0.75
-2.62
-5.80
-9.91
-14.39
-18.62
-21.95
-23.78
-23.60
-21.12
-16.39
-9.90
-2.49
4.85
11.29
16.30
19.71
21.60
22.09
21.32
19.36
16.37
12.66
8.70
5.08
2.36
0.92
0.86
1.95
3.74
5.67
7.29
8.28
8.58
8.28
7.54
6.59
5.58
4.62
3.80
3.16
2.66
2.24
1.73
0.96
-0.19
-1.75
-3.58
-5.40
-6.95
-8.00
-8.45
-8.34
-7.81
-7.09
-6.47
-6.22
-6.52
-7.36
-8.53
-9.63
-10.19
-9.86
-8.51
-6.27
-3.49
-0.55
2.25
4.73
6.81
8.42
9.55
10.16
10.29
10.05
9.57
8.98
8.35
7.68
6.94
6.16
5.41
4.76
4.27
3.92
3.68
3.48
3.32
3.20
3.14
3.10
2.99
2.79
2.50
2.16
1.83
1.47
1.01
0.38
-0.42
-1.31
-2.17
-2.97
-3.72
-4.54
-5.53
-6.68
-7.83
-8.66
-8.83
-8.10
-6.46
-4.10
-1.30
1.61
4.34
6.80
9.01
11.01
12.76
14.14
15.06
15.54
15.82
16.11
16.80
18.21
20.30
22.57
24.36
25.15
24.90
24.12
23.33
23.28
24.48
26.72
29.10
30.54
30.30
28.38
25.56
22.57
20.52
20.01
20.31
19.21
14.11
3.48
-11.96
-29.19
-45.08
-56.83
-63.26
-65.20
-64.50
-62.77
-61.49
-63.33
-68.35
-80.52
-102.23
-128.23
-146.21
-144.09
-117.32
-71.75
-20.67
22.14
48.19
58.14
59.11
59.03
62.11
67.69
72.22
71.90
65.16
52.45
36.43
20.19
5.75
-6.37
-16.68
-25.31
-32.26
-35.91
-35.05
-29.23
-19.33
-7.36
4.51
15.12
24.83
34.64
45.21
55.65
64.08
68.52
68.00
63.04
55.48
47.59
40.70
34.74
28.17
18.90
5.16
-13.86
-37.83
-65.85
-95.22
-122.89
-146.07
-162.88
-172.21
-173.56
-166.72
-151.82
-129.63
-101.71
-70.55
-38.96
-9.35
16.87
39.24
57.99
73.59
86.36
96.52
104.15
109.64
113.55
116.51
118.44
118.79
117.04
113.05
107.27
100.50
93.98
88.62
84.85
81.63
77.25
70.37
60.58
48.09
33.79
19.56
7.29
-0.85
-4.29
-3.42
0.89
7.47
14.57
20.36
24.29
25.61
23.71
15.77
-1.82
-31.41
-72.65
-122.86
-177.17
-229.23
-274.83
-300.41
-296.54
-265.42
-220.94
-178.60
-148.01
-136.43
-137.41
-144.32
-151.20
-154.64
-153.16
-142.14
-115.57
-76.51
-35.94
-4.59
12.10
16.10
11.99
6.02
-1.04
-8.78
-15.05
-16.59
-9.39
8.65
34.29
63.07
90.19
112.06
127.81
140.67
154.73
173.69
198.71
228.97
262.03
293.83
319.54
335.11
340.77
338.36
330.57
319.63
307.27
294.67
281.46
265.99
229.59
165.87
82.79
-2.12
-73.88
-126.22
-159.72
-178.62
-187.99
-192.39
-192.36
-188.23
-181.16
-172.93
-164.55
-155.52
-145.80
-134.49
-121.98
-107.64
-92.24
-77.70
-66.16
-58.52
-54.04
-51.33
-49.24
-47.51
-45.09
-41.63
-37.46
-33.36
-30.65
-29.68
-30.13
-31.09
-31.64
-30.26
-26.01
-18.90
-9.84
-0.06
9.55
18.62
27.17
35.02
41.64
45.84
46.41
43.07
37.38
32.53
31.96
37.66
49.02
63.23
76.51
85.63
88.66
85.10
75.21
59.64
39.70
17.52
-4.03
-21.96
-34.25
-40.43
-40.90
-36.98
-29.94
-20.71
-10.13
0.68
10.37
17.49
21.34
23.11
24.38
26.64
30.59
35.82
41.09
45.16
47.04
45.99
41.61
32.20
16.01
-6.89
-33.79
-60.16
-80.56
-90.86
-94.04
-88.61
-73.70
-49.49
-16.85
23.05
68.59
117.26
164.78
203.34
226.66
232.21
223.74
210.40
202.55
205.93
218.44
228.70
224.05
199.07
157.38
108.40
60.74
17.12
-26.99
-78.14
-142.67
-218.78
-294.86
-356.28
-393.40
-406.21
-402.16
-391.81
-382.25
-380.59
-390.00
-409.18
-434.94
-464.64
-496.05
-524.62
-544.54
-520.09
-434.18
-300.87
-156.02
-31.40
61.36
123.99
171.28
208.87
233.96
236.39
208.38
153.22
83.61
14.07
-42.42
-78.33
-93.50
-91.87
-82.53
-72.95
-62.62
-46.69
-21.28
12.93
51.68
89.24
122.37
148.72
168.73
189.60
219.56
263.26
319.39
382.24
445.11
503.55
555.20
578.01
558.73
498.89
415.69
330.61
257.76
200.75
156.04
116.46
74.73
30.05
-14.55
-54.21
-84.99
-105.12
-115.30
-118.31
-117.55
-116.50
-114.08
-108.35
-99.06
-89.13
-83.42
-85.77
-96.70
-112.94
-128.76
-136.76
-132.20
-115.26
-90.54
-64.80
-43.76
-31.15
-28.68
-36.13
-50.83
-69.02
-86.39
-98.50
-101.86
-94.66
-77.44
-53.34
-27.15
-3.24
15.32
27.36
33.75
36.00
35.81
34.42
32.16
28.44
22.61
14.27
3.70
-7.97
-20.47
-34.33
-49.57
-65.49
-80.19
-89.99
-90.34
-80.84
-60.32
-30.61
4.18
39.58
72.44
99.38
117.72
125.51
121.67
107.16
84.82
59.60
37.26
22.03
14.91
13.72
14.37
12.85
7.31
-2.10
-13.56
-24.68
-33.54
-39.15
-41.08
-39.41
-34.75
-27.94
-20.30
-13.27
-8.06
-5.32
-5.16
-6.96
-9.75
-12.59
-14.66
-15.66
-15.81
-15.66
-16.01
-17.58
-20.62
-24.76
-29.17
-32.74
-34.61
-34.39
-32.34
-29.16
-25.76
-22.85
-20.81
-19.47
-18.19
-16.25
-13.31
-9.70
-6.33
-4.28
-4.28
-6.51
-10.45
-15.01
-18.91
-21.12
-21.01
-18.32
-13.05
-5.40
3.84
13.63
22.97
31.17
37.86
43.05
47.15
50.88
54.93
58.68
60.96
60.75
57.77
52.44
45.98
40.42
38.15
41.15
48.31
57.31
66.49
75.96
87.00
101.11
119.18
141.07
165.55
187.80
203.39
210.66
210.70
204.61
191.52
169.06
135.25
90.27
33.17
-34.77
-109.20
-184.30
-256.09
-324.21
-390.68
-457.65
-501.68
-504.09
-463.83
-397.50
-322.95
-249.48
-179.87
-115.21
-56.94
-6.94
30.01
51.21
58.90
59.87
61.48
67.93
78.82
91.23
100.87
101.35
89.27
67.18
42.92
25.29
19.53
25.15
36.93
47.23
47.78
34.29
8.46
-23.17
-52.07
-70.90
-75.78
-66.95
-48.07
-25.44
-5.08
9.06
15.55
14.46
6.41
-7.60
-25.46
-43.64
-57.82
-64.01
-59.99
-46.40
-26.77
-6.31
9.95
19.06
20.75
16.69
9.42
1.16
-6.47
-12.04
-14.02
-10.77
-1.13
15.06
36.58
60.90
84.76
104.77
118.00
122.52
117.84
105.22
87.46
68.16
50.41
35.77
23.85
13.07
1.88
-9.92
-20.84
-28.39
-30.55
-27.00
-19.49
-11.24
-5.59
-4.55
-7.91
-13.51
-18.18
-19.12
-15.15
-7.01
2.79
10.68
13.04
7.39
-6.93
-28.14
-52.37
-74.50
-89.20
-92.66
-83.71
-64.10
-37.86
-10.38
13.12
28.50
33.61
29.57
19.64
8.05
-1.47
-6.60
-7.27
-4.65
-0.68
3.35
9.03
18.47
32.36
48.85
64.41
74.97
79.12
77.70
72.97
69.63
70.49
74.94
80.48
86.01
92.31
103.08
120.34
142.32
167.43
192.85
215.35
232.73
245.26
253.71
260.75
267.41
252.28
204.89
132.24
54.67
-9.74
-45.68
-62.19
-69.27
-74.35
-81.48
-92.12
-103.70
-113.87
-123.12
-133.77
-149.21
-168.40
-187.13
-199.02
-195.48
-171.83
-130.41
-80.63
-34.02
0.04
19.69
28.16
30.68
33.04
33.46
29.41
19.39
5.16
-9.92
-21.89
-28.97
-32.03
-31.88
-31.04
-30.87
-32.07
-34.53
-37.90
-41.19
-43.73
-45.37
-45.94
-45.55
-43.87
-41.01
-37.56
-34.62
-33.10
-33.61
-36.23
-40.51
-45.71
-50.43
-53.53
-54.35
-52.79
-49.14
-43.85
-37.39
-30.23
-22.90
-15.65
-8.75
-2.49
2.81
7.00
10.03
12.05
13.31
14.05
14.62
15.30
16.25
17.46
18.79
20.00
20.79
20.91
20.14
18.41
15.80
12.57
9.15
6.01
3.58
2.10
1.56
1.63
1.67
0.90
-1.39
-5.49
-11.06
-17.07
-22.05
-24.64
-24.10
-20.68
-15.46
-9.91
-5.26
-2.08
-0.31
0.45
0.55
0.11
-0.95
-2.66
-4.86
-7.25
-9.47
-11.31
-12.68
-13.61
-14.11
-14.13
-13.68
-12.81
-11.85
-11.24
-11.43
-12.64
-14.74
-17.24
-19.45
-20.78
-20.88
-19.69
-17.17
-13.09
-6.94
1.79
13.21
26.83
41.59
56.26
69.54
79.97
85.68
84.58
75.09
57.25
33.52
8.39
-13.04
-27.03
-32.45
-30.87
-25.33
-18.72
-12.74
-7.91
-4.18
-1.63
-0.68
-1.71
-4.72
-9.06
-13.50
-16.66
-17.32
-14.96
-9.97
-3.62
2.35
6.40
7.90
7.38
6.27
6.24
8.44
13.20
20.02
27.96
36.01
43.45
49.97
55.44
59.70
62.32
62.79
60.74
56.19
49.68
42.24
34.99
28.57
22.93
17.50
11.85
6.11
0.76
-3.71
-7.11
-9.57
-11.46
-13.16
-14.98
-16.77
-18.21
-19.32
-20.50
-22.12
-24.06
-25.74
-26.51
-26.08
-24.13
-20.32
-14.74
-7.78
0.14
9.05
19.17
30.63
39.83
43.24
40.12
33.03
25.46
19.38
15.03
11.48
7.68
3.96
0.64
-1.01
0.01
3.77
9.54
16.26
22.21
25.52
23.18
11.92
-8.32
-33.47
-57.18
-74.93
-86.21
-94.03
-101.25
-107.80
-110.02
-103.01
-84.79
-58.80
-34.17
-18.01
-14.61
-23.26
-39.07
-55.27
-65.71
-66.61
-56.94
-38.44
-14.59
10.04
31.22
45.65
51.48
49.57
41.74
32.54
27.07
28.03
33.97
41.34
47.27
51.24
54.20
57.18
60.04
61.18
58.83
52.42
43.36
34.42
29.29
29.62
35.48
45.21
56.01
64.57
67.52
62.06
45.44
18.59
-14.61
-47.35
-72.19
-84.04
-82.73
-72.99
-61.99
-55.72
-56.10
-61.97
-68.04
-69.77
-64.36
-51.28
-31.97
-9.49
11.93
27.70
33.66
28.13
12.41
-9.03
-30.74
-49.00
-63.42
-76.29
-90.04
-105.01
-116.37
-118.87
-108.26
-84.28
-51.67
-18.67
6.80
20.60
23.91
22.26
21.80
26.63
37.09
50.40
62.96
72.73
80.03
86.64
94.10
101.93
107.73
108.07
100.36
84.38
62.76
39.81
19.62
4.22
-7.10
-16.77
-27.24
-39.40
-51.95
-62.08
-67.26
-66.90
-62.80
-58.31
-56.57
-59.17
-65.72
-74.45
-82.83
-88.95
-91.94
-91.84
-89.04
-84.01
-77.71
-71.84
-68.36
-67.41
-67.51
-65.94
-59.91
-47.88
-30.43
-10.39
8.45
22.88
33.43
42.74
53.88
68.41
85.92
104.51
121.66
135.46
145.15
153.38
163.26
176.53
192.75
210.05
226.70
241.80
255.74
255.96
234.71
192.61
139.30
86.57
41.82
7.25
-18.26
-36.76
-50.55
-59.55
-63.68
-63.74
-61.51
-58.89
-55.94
-53.49
-51.61
-50.44
-48.75
-45.73
-41.49
-37.05
-33.60
-31.82
-31.88
-33.40
-35.88
-37.78
-37.76
-35.60
-31.90
-27.93
-24.90
-23.68
-24.39
-26.66
-29.34
-31.31
-31.93
-31.23
-29.75
-28.12
-26.93
-26.47
-26.82
-27.67
-28.49
-28.77
-28.18
-26.69
-24.49
-22.00
-19.55
-17.36
-15.44
-13.61
-11.69
-9.58
-7.42
-5.48
-4.05
-3.21
-2.87
-2.76
-2.63
-2.42
-2.20
-2.20
-2.57
-3.33
-4.36
-5.46
-6.49
-7.30
-7.82
-7.89
-7.34
-6.03
-3.93
-1.16
2.00
5.24
8.28
10.94
13.10
14.72
15.71
16.02
15.55
14.31
12.34
9.81
6.98
4.15
1.61
-0.44
-1.91
-2.84
-3.36
-3.59
-3.62
-3.49
-3.26
-3.03
-2.98
-3.32
-4.16
-5.50
-7.13
-8.76
-10.11
-10.97
-11.29
-11.16
-10.74
-10.21
-9.72
-9.34
-9.03
-8.68
-8.16
-7.39
-6.43
-5.48
-4.86
-4.77
-5.16
-5.70
-5.90
-5.40
-4.18
-2.71
-1.74
-1.98
-3.76
-6.87
-10.78
-14.96
-19.18
-23.56
-28.50
-34.33
-41.18
-48.82
-56.77
-64.27
-70.29
-73.57
-72.79
-66.91
-55.68
-39.92
-21.52
-2.90
13.75
27.21
37.44
45.39
52.36
59.30
66.27
72.52
76.92
78.55
77.18
73.27
67.60
60.96
53.79
46.33
38.67
31.12
24.15
18.38
14.26
11.89
10.95
10.85
10.93
10.70
9.95
8.78
7.51
6.66
6.64
7.66
9.54
11.84
14.03
15.74
16.94
17.95
19.28
21.35
24.23
27.57
30.72
33.01
33.94
33.34
31.22
27.73
23.02
17.43
11.58
6.46
3.20
2.65
5.00
9.61
15.26
20.64
24.90
27.93
30.24
32.68
35.91
40.09
44.79
49.28
52.85
55.23
56.64
57.48
58.03
58.09
57.02
54.12
49.06
42.06
33.62
24.25
14.38
4.58
-4.01
-10.02
-13.04
-14.81
-19.23
-30.78
-51.83
-80.47
-110.45
-133.51
-143.16
-137.71
-121.14
-101.27
-86.72
-84.19
-97.19
-126.04
-168.32
-218.92
-270.06
-311.99
-335.13
-333.02
-304.84
-256.06
-196.68
-137.73
-87.93
-51.32
-27.30
-12.49
-2.92
4.28
10.39
15.58
19.65
22.58
24.60
25.98
26.84
27.13
26.86
26.34
26.21
27.32
30.37
35.45
41.89
48.45
53.90
57.71
60.33
62.95
66.78
72.30
78.87
85.05
89.24
90.40
88.33
83.59
77.01
69.39
61.35
53.40
45.98
39.48
34.13
29.91
26.58
23.88
21.63
19.81
18.50
17.79
17.68
18.02
18.62
19.25
19.77
20.13
20.40
20.63
20.77
20.53
19.36
16.62
11.84
4.99
-3.31
-11.96
-19.64
-25.18
-27.89
-27.67
-25.02
-20.79
-15.98
-11.46
-7.82
-5.27
-3.70
-2.76
-2.05
-1.25
-0.10
1.56
3.80
6.56
9.63
12.65
15.20
16.88
17.51
17.21
16.44
15.78
15.72
16.51
18.16
20.51
23.39
26.69
30.38
34.55
39.12
43.77
48.13
52.04
55.53
58.77
61.83
64.61
67.17
69.44
71.20
72.28
72.59
71.97
70.04
66.31
60.49
53.18
45.21
37.18
29.55
22.75
17.18
13.01
10.17
8.29
7.33
6.80
5.77
3.36
-0.65
-5.97
-12.27
-19.45
-31.08
-47.22
-64.44
-78.27
-86.35
-88.57
-85.77
-78.49
-66.80
-50.97
-31.68
-10.47
9.51
24.54
32.19
32.13
26.16
17.35
9.02
4.17
4.28
9.10
15.77
21.66
24.58
23.51
18.92
12.45
6.36
1.45
-1.50
-2.68
-3.31
-5.32
-10.22
-18.39
-29.05
-40.48
-50.47
-56.96
-59.09
-57.49
-54.45
-53.27
-56.90
-66.23
-79.52
-91.86
-96.82
-89.54
-69.11
-39.45
-8.11
16.09
28.45
27.62
16.65
1.51
-11.92
-20.25
-23.58
-24.81
-27.76
-34.53
-45.04
-56.05
-62.33
-59.32
-45.02
-20.24
11.96
47.15
80.83
105.71
114.97
106.76
85.24
58.65
35.51
21.75
16.47
16.47
17.62
17.51
16.32
15.70
17.01
20.00
22.80
22.44
17.49
8.17
-3.12
-12.85
-18.25
-18.31
-13.94
-7.14
-0.22
5.32
8.83
11.15
13.78
17.85
23.33
29.48
35.42
40.08
42.36
41.28
36.66
29.17
19.64
8.64
-3.03
-14.47
-25.95
-39.53
-58.28
-84.15
-116.71
-152.62
-186.11
-209.24
-213.66
-193.96
-149.85
-85.74
-8.71
73.05
151.07
211.57
238.04
223.12
175.33
112.63
51.50
1.61
-33.82
-55.68
-66.67
-68.61
-61.85
-47.04
-26.81
-5.14
14.19
28.64
37.03
39.28
37.26
34.43
33.88
36.59
41.26
45.38
46.42
43.50
36.15
26.09
16.31
9.13
4.79
1.85
-1.58
-6.59
-13.09
-20.16
-26.23
-29.94
-30.88
-29.83
-28.21
-27.25
-27.40
-28.45
-29.94
-31.26
-31.92
-31.78
-31.08
-30.30
-29.88
-29.67
-29.40
-28.71
-27.27
-24.82
-21.08
-15.96
-9.70
-2.74
4.41
11.28
17.51
22.75
27.13
31.46
36.59
42.81
49.71
56.42
61.97
65.68
66.96
66.23
64.87
64.26
64.69
65.14
63.77
58.47
47.57
29.77
5.75
-21.47
-47.63
-68.70
-81.54
-84.09
-75.55
-52.75
-18.95
15.96
41.91
54.70
55.78
49.46
40.13
30.31
20.13
7.59
-8.50
-27.00
-45.21
-60.59
-71.05
-75.06
-71.54
-60.18
-42.66
-22.23
-3.19
9.64
13.49
7.91
-4.66
-19.83
-33.20
-42.36
-46.89
-47.39
-43.16
-35.92
-26.92
-17.00
-7.25
0.90
5.75
6.47
3.76
-0.24
-3.41
-3.79
-1.20
2.86
5.96
6.12
2.95
-2.23
-7.31
-10.94
-12.86
-13.97
-15.47
-18.04
-21.44
-24.75
-26.96
-27.45
-26.18
-23.24
-18.71
-12.57
-4.81
4.61
14.80
24.45
32.52
38.86
44.43
50.67
58.46
67.39
75.76
81.21
81.87
77.08
67.44
54.65
40.98
28.52
18.43
10.44
2.66
-7.54
-22.22
-41.62
-63.67
-84.63
-100.72
-109.64
-111.30
-107.28
-99.71
-90.34
-80.53
-71.64
-65.38
-63.59
-67.36
-76.27
-88.16
-99.67
-107.30
-108.50
-102.42
-90.04
-73.69
-55.86
-38.11
-20.37
-1.18
21.16
47.24
75.74
103.67
127.64
145.24
155.94
160.84
161.69
159.79
155.48
148.49
138.84
127.51
116.43
107.66
102.33
99.97
98.75
96.36
91.19
83.12
73.31
63.49
54.94
47.97
42.06
36.52
31.10
26.09
21.99
19.06
17.03
15.30
13.31
10.83
7.93
4.85
1.74
-1.21
-3.59
-4.64
-3.39
0.92
8.55
19.12
31.90
46.18
61.63
78.15
95.20
111.07
122.62
125.79
116.85
93.95
58.13
13.63
-33.18
-75.82
-109.63
-132.93
-146.79
-153.77
-156.51
-156.88
-155.52
-152.32
-147.42
-141.74
-136.83
-134.07
-133.74
-134.89
-136.33
-136.81
-135.53
-132.64
-129.20
-126.42
-124.96
-124.43
-123.80
-122.57
-119.87
-114.12
-103.40
-86.26
-62.30
-32.84
-0.75
29.58
52.37
63.48
62.39
52.08
37.64
24.86
18.64
22.21
40.09
69.17
98.66
117.42
120.93
111.51
96.45
80.35
66.24
55.93
48.90
44.06
41.09
38.34
32.11
17.88
-6.88
-38.40
-66.69
-82.41
-81.45
-65.78
-41.97
-18.22
-0.94
7.50
8.95
7.82
7.92
11.70
20.91
36.71
59.64
89.17
122.56
149.05
157.68
140.81
98.72
41.81
-12.81
-48.54
-56.16
-37.10
-1.55
37.41
68.48
84.48
82.69
63.87
31.45
-8.16
-46.09
-73.13
-83.77
-76.17
-54.13
-24.82
4.11
26.73
40.03
43.55
38.29
26.80
13.13
2.07
-2.09
2.56
13.56
24.90
29.35
21.82
1.96
-25.69
-54.02
-76.42
-85.61
-78.90
-58.01
-28.05
4.54
34.55
59.96
82.33
105.75
134.41
169.95
210.57
251.12
285.02
307.06
315.66
313.38
305.66
297.19
290.08
283.64
275.13
261.19
239.69
210.64
176.52
141.18
106.21
72.55
41.11
12.47
-13.99
-39.39
-65.71
-94.34
-126.14
-165.77
-214.43
-266.98
-313.30
-343.29
-350.90
-338.89
-316.43
-295.83
-294.32
-319.27
-363.97
-412.88
-451.87
-474.09
-483.93
-489.55
-498.37
-523.35
-569.27
-630.06
-693.39
-747.50
-783.05
-797.34
-788.97
-703.16
-526.39
-295.88
-72.85
102.37
213.17
285.06
335.75
375.07
409.17
433.27
446.54
456.22
466.41
476.63
484.11
483.66
473.77
456.04
426.74
386.21
341.03
300.58
271.95
258.10
254.46
254.03
249.39
230.17
191.70
138.27
81.18
33.80
7.15
4.08
20.46
47.31
72.23
86.41
87.98
81.60
72.09
63.58
57.09
51.46
45.63
38.79
31.60
25.71
21.51
17.23
9.82
-3.99
-25.32
-51.85
-78.96
-102.91
-119.74
-127.86
-128.13
-122.92
-114.90
-107.80
-103.75
-103.59
-106.77
-112.14
-118.99
-127.20
-137.22
-143.26
-145.98
-146.16
-144.57
-142.30
-141.15
-142.27
-144.67
-147.19
-142.17
-124.91
-94.68
-56.11
-16.92
15.53
37.97
51.82
61.37
71.45
83.85
99.51
115.46
131.06
146.67
163.33
180.63
196.48
208.79
215.47
216.34
211.83
202.57
188.38
170.24
149.72
129.14
110.69
95.04
82.18
70.95
60.50
45.46
26.43
7.01
-9.57
-22.65
-33.32
-40.90
-47.23
-55.21
-68.74
-90.25
-120.68
-157.05
-193.84
-223.39
-236.27
-224.86
-186.73
-126.32
-52.54
22.67
87.21
131.30
142.95
118.49
69.26
14.52
-32.25
-66.91
-90.98
-105.36
-107.32
-91.57
-53.25
5.51
72.62
128.64
156.69
149.89
113.45
61.03
9.30
-32.78
-61.83
-79.31
-89.16
-92.39
-86.56
-68.80
-37.98
-0.79
35.05
63.63
83.65
93.15
90.97
76.29
49.14
11.89
-29.26
-64.38
-82.86
-73.46
-35.13
23.11
86.87
142.70
182.13
202.44
208.29
201.13
184.18
161.50
139.11
123.32
119.25
128.40
148.20
169.49
182.37
182.19
167.28
143.05
118.17
100.90
93.39
91.86
82.97
54.15
1.55
-69.31
-147.52
-222.86
-288.16
-342.77
-388.17
-433.18
-484.30
-541.33
-599.25
-653.76
-704.60
-752.88
-801.45
-804.74
-735.57
-601.01
-435.88
-274.80
-138.17
-41.33
26.99
75.08
112.28
139.61
157.56
166.73
172.20
179.57
192.32
212.81
239.02
271.57
304.15
329.68
344.52
350.70
353.02
356.04
363.97
377.64
400.86
431.17
462.59
488.80
505.92
512.72
510.06
501.28
463.11
389.31
291.41
190.96
104.05
35.79
-14.53
-49.05
-69.86
-80.72
-84.59
-86.48
-93.37
-108.92
-132.34
-158.78
-182.91
-201.41
-214.66
-225.28
-238.83
-261.38
-292.14
-330.51
-374.89
-423.12
-472.18
-501.31
-492.54
-441.00
-356.34
-256.86
-161.49
-83.46
-28.51
4.75
22.26
30.99
33.64
33.14
32.11
32.61
37.03
47.86
67.09
95.40
130.66
164.97
195.15
219.93
238.35
250.13
256.06
258.25
259.46
260.80
248.68
218.35
173.47
122.58
73.74
31.97
-0.36
-23.02
-38.35
-48.46
-55.45
-60.05
-62.52
-62.96
-61.18
-56.91
-50.19
-41.51
-33.13
-24.08
-13.18
-0.38
13.13
25.72
35.97
42.89
45.85
44.61
40.59
35.02
28.04
19.12
8.03
-4.67
-17.72
-29.62
-39.11
-44.65
-45.65
-42.76
-36.96
-28.28
-15.85
1.49
22.28
42.08
55.68
59.63
53.59
39.85
22.64
6.25
-6.31
-14.21
-18.86
-21.21
-22.22
-23.13
-25.30
-29.14
-34.85
-42.53
-50.54
-56.86
-58.50
-52.82
-38.59
-16.52
11.61
41.98
69.78
88.72
92.41
79.84
56.37
30.77
6.31
-16.00
-37.44
-57.35
-75.01
-89.31
-98.76
-102.72
-101.89
-98.17
-92.99
-88.44
-85.76
-85.25
-86.05
-86.62
-86.08
-84.49
-82.69
-75.30
-60.31
-40.07
-19.99
-4.20
6.55
13.65
19.00
24.11
30.32
37.38
44.69
51.77
58.46
64.78
70.38
75.40
78.87
80.29
78.96
74.84
68.58
61.44
54.65
48.75
43.50
38.11
31.94
24.45
15.93
7.38
-0.03
-5.30
-8.12
-9.07
-9.17
-9.14
-9.20
-8.69
-6.60
-2.07
5.03
13.83
23.02
31.68
39.74
47.71
56.07
64.49
71.95
76.81
77.22
71.56
59.26
40.90
18.35
-5.63
-27.84
-44.34
-52.00
-50.12
-41.93
-33.55
-31.67
-40.12
-57.37
-77.01
-89.54
-88.11
-72.15
-48.34
-26.32
-13.93
-13.68
-22.37
-34.38
-43.68
-47.73
-47.24
-44.66
-40.74
-33.94
-21.81
2.62
37.46
74.22
100.54
111.27
103.73
78.24
38.29
-10.43
-61.69
-110.86
-145.58
-155.87
-141.46
-112.72
-81.17
-53.05
-29.30
-8.71
9.47
25.54
37.97
45.07
46.10
42.77
38.19
35.29
35.42
38.55
43.91
49.40
52.81
52.83
49.94
45.70
41.81
38.47
36.21
34.78
32.74
28.29
20.08
8.06
-6.76
-21.11
-34.01
-43.97
-50.13
-53.05
-54.37
-56.00
-59.11
-65.31
-72.22
-77.70
-79.07
-74.67
-64.80
-51.72
-38.44
-27.92
-22.42
-22.92
-29.15
-37.93
-44.63
-44.17
-33.12
-10.67
20.54
55.03
86.67
107.09
113.98
110.78
104.10
99.37
99.04
101.50
103.09
98.07
82.82
57.69
26.08
-6.88
-37.15
-62.21
-82.52
-101.27
-122.50
-148.23
-176.82
-204.84
-221.96
-222.15
-202.75
-165.08
-114.09
-55.93
4.86
65.43
122.88
172.87
209.01
225.92
221.43
197.22
159.28
117.32
81.13
57.08
46.93
48.80
59.71
75.52
89.25
92.21
77.85
43.98
-5.86
-63.09
-115.76
-151.90
-157.02
-126.27
-75.28
-28.18
0.91
12.60
14.39
13.92
15.36
18.70
20.47
17.62
12.35
9.08
12.63
24.63
43.29
64.41
82.75
93.05
92.62
83.41
64.73
42.17
21.06
3.80
-10.11
-22.19
-33.83
-45.07
-54.36
-61.43
-66.86
-72.88
-81.87
-94.65
-109.55
-122.80
-129.59
-125.70
-102.41
-62.99
-18.89
17.66
39.89
47.89
46.33
40.77
34.98
30.02
24.71
18.51
12.58
9.10
9.54
13.58
19.01
23.16
24.10
21.29
16.49
12.80
12.97
17.95
27.05
37.04
44.58
47.71
46.07
41.52
37.35
36.95
42.37
53.20
65.83
74.47
73.14
57.68
28.05
-11.21
-52.27
-86.87
-107.52
-111.69
-103.17
-89.04
-76.22
-68.99
-67.75
-69.19
-67.81
-58.93
-39.13
-7.99
31.94
75.16
114.08
141.52
153.39
149.83
134.56
112.15
87.43
64.75
46.70
33.28
23.34
16.28
12.52
13.09
17.40
24.86
34.94
45.74
53.08
52.27
40.28
16.74
-16.84
-58.89
-105.52
-151.13
-182.14
-187.72
-168.06
-133.81
-106.15
-89.87
-87.05
-98.44
-118.82
-144.39
-171.03
-193.03
-203.30
-184.45
-132.42
-62.57
3.02
50.46
77.25
88.06
89.56
87.17
83.82
79.21
71.75
62.51
55.00
51.86
53.37
57.70
62.44
65.59
65.52
61.65
56.00
52.62
53.61
59.33
68.68
80.05
91.78
101.85
108.41
110.67
108.72
102.69
93.12
81.08
68.22
55.84
44.47
34.04
24.64
16.60
10.21
5.78
3.21
2.78
3.35
3.40
1.90
-1.12
-4.84
-8.09
-9.63
-8.48
-4.13
1.77
7.35
11.23
12.94
12.78
11.50
10.28
10.43
12.94
15.87
16.89
14.22
7.31
-3.66
-18.42
-36.49
-56.97
-78.38
-101.54
-126.34
-151.74
-175.71
-196.90
-215.48
-232.45
-248.41
-246.63
-217.40
-162.51
-95.48
-31.76
17.82
48.03
58.68
53.65
39.65
21.42
-0.05
-23.46
-47.09
-69.09
-87.51
-100.23
-105.45
-102.47
-93.98
-73.75
-42.42
-2.28
42.63
85.92
120.07
138.89
140.47
127.14
105.72
83.30
65.47
53.90
46.75
41.43
36.90
34.15
34.03
36.25
38.41
38.26
34.79
28.37
20.84
14.54
11.19
10.90
12.53
13.78
13.07
10.02
5.36
0.55
-3.04
-4.67
-4.67
-4.03
-4.16
-5.76
-8.63
-11.95
-14.57
-15.82
-15.51
-14.26
-13.05
-13.17
-15.57
-20.49
-26.91
-32.35
-33.37
-26.77
-11.43
11.18
36.83
59.99
75.91
82.29
79.78
70.60
58.60
46.30
34.76
24.11
14.31
5.79
-0.65
-4.41
-5.49
-4.61
-3.10
-2.32
-2.91
-4.87
-7.44
-9.59
-10.54
-9.99
-8.23
-6.07
-4.47
-4.09
-5.05
-6.95
-8.97
-10.29
-10.41
-9.29
-7.43
-5.62
-4.54
-4.41
-4.88
-5.20
-4.53
-2.19
1.95
7.83
15.35
24.49
34.94
45.43
53.44
55.95
50.80
38.05
20.69
3.46
-9.22
-15.41
-16.27
-14.99
-14.39
-15.06
-15.29
-12.98
-8.11
-3.26
-1.99
-6.01
-13.08
-17.74
-14.65
-1.93
17.48
37.19
51.05
56.26
54.05
47.86
40.53
32.54
22.16
8.53
-7.83
-24.38
-37.92
-46.37
-49.38
-47.96
-43.62
-37.49
-30.22
-22.83
-16.76
-13.74
-15.50
-22.76
-34.92
-49.50
-62.13
-67.44
-60.95
-41.14
-10.88
22.60
50.22
64.69
63.89
51.78
36.08
24.03
18.90
18.76
18.35
12.79
0.63
-15.35
-30.07
-39.12
-41.14
-37.66
-32.25
-28.52
-28.63
-32.98
-40.60
-50.10
-60.17
-70.17
-79.60
-88.54
-97.76
-108.55
-122.24
-139.52
-159.56
-179.57
-195.23
-201.12
-193.24
-170.70
-135.99
-94.24
-51.10
-10.62
26.37
57.17
81.77
102.64
123.37
146.90
173.42
199.31
217.69
220.94
204.29
169.54
125.04
82.97
55.31
49.84
68.06
105.48
153.34
200.72
237.06
253.67
245.71
213.83
164.94
110.75
64.03
34.16
23.95
28.77
38.33
40.88
28.11
-1.08
-39.56
-74.45
-92.35
-85.38
-54.87
-10.92
32.73
65.71
86.03
99.64
115.10
136.60
160.26
175.83
172.68
146.56
102.60
53.08
11.42
-13.67
-20.97
-15.58
-5.19
3.60
7.07
4.02
-5.39
-21.43
-45.47
-79.14
-122.46
-171.99
-220.15
-257.07
-274.33
-269.00
-245.54
-214.49
-187.94
-174.49
-175.86
-187.21
-200.39
-208.10
-206.55
-195.64
-177.54
-154.91
-129.99
-104.79
-81.92
-64.55
-55.45
-55.29
-61.14
-67.02
-65.82
-52.20
-24.91
12.45
52.78
88.29
113.43
126.88
130.69
128.20
122.13
113.70
102.86
89.31
73.66
57.80
45.09
38.17
37.41
40.88
45.36
47.54
44.89
36.26
22.25
6.08
-8.70
-19.79
-26.21
-27.67
-24.18
-16.10
-4.11
11.07
30.08
52.79
77.15
99.85
117.97
129.37
132.42
125.77
100.35
55.35
2.27
-42.14
-67.28
-71.74
-60.76
-42.53
-24.79
-12.25
-4.27
1.82
7.69
12.78
15.52
14.57
9.83
2.79
-3.67
-5.61
-1.11
8.30
18.70
26.38
29.34
27.91
23.97
20.28
19.87
24.40
33.86
45.61
56.61
63.79
64.38
56.52
40.58
19.80
-0.56
-15.13
-20.63
-17.00
-7.35
3.32
10.28
11.60
8.52
4.04
0.61
-1.45
-3.87
-8.74
-15.61
-22.92
-27.56
-26.62
-19.32
-7.66
4.85
14.66
19.43
19.23
14.32
4.33
-11.77
-34.55
-62.83
-92.51
-117.91
-133.47
-136.44
-128.78
-116.45
-107.26
-108.06
-123.30
-151.23
-188.66
-230.16
-269.15
-298.95
-313.78
-309.83
-286.08
-244.55
-189.49
-126.75
-62.00
-0.46
53.01
94.51
122.03
136.89
143.38
147.46
153.91
164.45
177.46
189.45
197.67
201.40
201.50
198.61
192.04
179.90
161.19
137.51
113.22
93.68
82.65
80.62
84.58
90.03
93.17
92.98
91.78
94.19
105.02
126.80
158.35
194.65
228.48
252.59
261.91
254.70
232.25
197.49
153.81
104.38
52.04
-0.26
-49.72
-94.38
-134.09
-171.02
-209.31
-253.69
-307.39
-370.12
-436.87
-498.51
-544.32
-565.51
-558.54
-526.32
-476.73
-419.07
-360.44
-303.63
-247.58
-189.61
-128.09
-64.11
-1.45
54.66
99.47
130.39
148.13
156.91
163.47
174.94
195.75
225.68
259.67
289.89
309.06
313.26
302.56
279.77
248.39
211.11
169.81
126.40
83.60
44.95
13.98
-6.95
-17.41
-18.94
-14.47
-7.67
-1.97
0.55
0.23
0.10
4.97
19.27
44.48
77.77
112.65
141.54
158.95
163.55
158.15
147.92
137.86
131.08
128.40
129.16
132.38
137.34
143.66
150.75
157.58
162.79
165.12
163.87
158.92
150.68
139.64
126.40
111.67
96.31
81.24
67.17
54.29
42.19
30.07
17.19
3.12
-12.44
-30.09
-51.22
-77.91
-111.92
-153.15
-198.69
-243.03
-279.71
-303.90
-314.15
-312.85
-304.91
-295.43
-288.09
-284.65
-285.49
-290.22
-297.82
-306.35
-312.85
-313.89
-306.85
-290.97
-267.37
-238.09
-204.67
-167.24
-124.76
-76.41
-23.09
31.88
83.30
126.03
156.88
175.70
185.06
188.82
190.27
190.90
190.40
187.52
181.55
173.18
164.17
156.27
150.07
144.57
137.68
127.46
113.09
95.31
76.02
57.50
41.70
29.83
22.27
18.61
17.90
18.81
19.93
19.94
17.81
12.84
4.66
-6.77
-21.16
-37.73
-55.28
-72.32
-87.48
-99.81
-109.10
-115.86
-120.76
-124.22
-126.06
-125.65
-122.31
-115.75
-106.30
-94.97
-83.19
-72.29
-63.11
-55.79
-49.83
-44.17
-37.68
-29.39
-18.70
-5.34
10.75
29.28
49.55
70.15
89.05
103.91
112.84
115.30
112.50
107.02
101.62
98.28
97.70
99.69
103.62
109.06
115.94
124.45
134.52
145.25
155.18
162.81
167.48
168.62
165.81
158.65
147.52
133.82
119.38
106.09
95.37
88.50
84.94
83.00
80.78
77.91
75.77
75.93
79.27
85.47
94.39
104.03
111.60
113.83
108.96
96.70
76.88
49.61
15.72
-21.16
-58.40
-94.89
-132.11
-172.03
-209.77
-237.17
-246.63
-247.35
-242.89
-236.81
-226.96
-215.65
-205.29
-197.30
-192.90
-193.41
-200.24
-212.28
-228.95
-249.85
-275.90
-307.80
-345.87
-389.35
-434.69
-475.05
-500.30
-503.06
-481.40
-439.95
-386.40
-328.13
-270.11
-214.28
-160.69
-108.28
-57.54
-9.87
33.46
72.97
111.16
151.13
195.38
244.89
298.82
353.19
401.39
435.34
448.43
438.17
407.57
364.41
318.27
276.91
243.42
216.42
192.49
169.49
148.25
131.65
122.05
118.95
118.61
116.14
108.50
96.33
83.45
74.34
71.06
71.93
72.64
68.93
59.39
46.42
34.71
28.48
28.98
33.82
38.51
39.07
34.14
25.51
16.72
10.59
7.40
4.57
-1.85
-14.87
-34.67
-58.19
-80.37
-96.37
-103.42
-101.33
-91.84
-77.50
-60.71
-43.40
-27.22
-13.42
-2.51
6.03
13.89
23.18
35.08
48.71
60.92
67.42
65.13
54.11
38.14
23.40
15.69
17.59
26.97
37.50
41.08
31.39
6.64
-29.57
-69.65
-105.28
-130.69
-144.56
-149.32
-148.68
-145.06
-138.13
-125.91
-107.37
-84.57
-62.75
-48.21
-45.19
-54.36
-73.02
-96.88
-121.74
-144.23
-161.47
-170.62
-169.21
-155.80
-132.11
-103.27
-75.93
-55.01
-41.46
-32.63
-24.42
-13.70
2.05
22.89
46.72
70.50
91.74
109.11
122.15
130.66
134.95
139.20
147.02
159.61
175.60
193.03
210.70
227.91
243.60
256.20
269.28
285.24
303.59
321.46
336.43
347.85
355.76
359.66
359.13
361.64
373.50
395.86
424.07
451.55
472.92
484.32
482.90
427.61
302.82
128.19
-51.46
-198.60
-300.11
-361.90
-397.48
-420.67
-441.80
-456.45
-457.29
-440.59
-408.25
-364.75
-314.25
-258.08
-199.85
-149.24
-111.34
-87.54
-76.09
-74.40
-79.26
-86.91
-93.66
-97.22
-96.62
-88.34
-71.34
-48.93
-27.99
-15.20
-14.56
-26.38
-48.21
-75.34
-100.10
-115.86
-119.71
-113.98
-101.96
-87.25
-72.81
-60.68
-51.63
-44.47
-37.40
-29.23
-19.88
-9.99
-0.70
6.81
11.59
13.37
12.70
10.72
8.59
7.11
6.53
6.52
6.46
5.78
4.54
3.01
1.60
0.64
0.16
0.02
-0.17
-0.85
-2.23
-4.25
-6.64
-8.96
-10.79
-11.93
-12.46
-12.77
-13.25
-14.10
-15.15
-16.12
-16.75
-17.04
-17.21
-17.36
-17.25
-16.30
-13.96
-10.10
-5.25
-0.36
3.75
6.77
9.03
11.18
13.64
16.35
18.83
20.64
21.85
23.08
25.17
28.65
33.39
38.58
43.13
46.16
47.40
47.21
46.43
45.87
45.97
46.66
47.47
47.77
47.00
44.87
41.35
36.68
31.24
25.62
20.43
16.18
13.08
10.90
9.10
7.06
4.43
1.26
-2.07
-5.06
-7.45
-9.27
-10.84
-12.46
-14.17
-15.73
-16.73
-16.93
-16.43
-15.69
-15.32
-15.82
-17.32
-19.60
-22.21
-24.71
-26.91
-28.77
-30.34
-31.58
-32.38
-32.69
-32.62
-32.47
-32.66
-33.49
-35.00
-37.06
-39.35
-41.63
-43.72
-45.46
-46.57
-46.75
-45.70
-43.41
-40.25
-36.86
-33.94
-31.97
-31.02
-30.76
-30.64
-30.24
-29.45
-28.44
-27.46
-26.50
-25.18
-22.91
-19.19
-14.03
-8.05
-2.21
2.69
6.48
9.76
13.55
18.74
25.70
34.04
42.85
51.13
58.14
63.57
67.43
70.04
71.77
73.03
74.18
75.54
77.32
79.55
82.02
84.27
85.81
86.24
85.58
84.29
83.25
83.41
85.43
89.35
94.51
99.79
103.94
106.14
106.21
104.75
102.86
101.76
102.20
104.19
106.88
108.73
107.74
101.79
89.05
68.34
39.41
2.95
-39.81
-87.55
-139.63
-196.22
-257.88
-324.33
-393.00
-458.42
-513.03
-549.39
-562.81
-552.98
-523.94
-482.38
-434.91
-385.95
-336.93
-287.01
-234.43
-177.52
-115.11
-46.97
25.80
100.42
172.48
236.36
285.98
315.93
323.18
308.60
277.03
236.17
194.60
160.01
137.80
129.87
134.49
147.58
164.87
182.70
198.63
211.36
220.72
227.16
230.19
227.13
213.67
185.98
141.62
80.85
7.25
-72.59
-146.64
-199.43
-220.83
-212.99
-188.01
-160.32
-139.21
-126.89
-119.70
-110.87
-94.22
-67.12
-33.25
4.46
40.88
69.66
84.75
82.89
65.24
36.58
3.37
-28.27
-53.42
-70.31
-78.62
-81.46
-84.58
-94.49
-116.08
-150.39
-192.57
-232.04
-256.69
-257.94
-235.26
-196.33
-153.64
-119.02
-99.14
-93.92
-98.16
-105.63
-111.79
-114.64
-113.15
-105.73
-90.02
-64.37
-29.41
11.66
54.09
93.62
128.12
157.91
184.62
209.42
231.94
250.15
261.52
264.20
258.07
244.74
226.98
207.59
188.62
171.16
155.52
141.69
129.53
118.76
108.80
98.90
88.41
77.23
65.95
55.62
47.30
41.49
37.98
36.00
34.68
33.35
31.87
30.49
29.77
30.39
33.06
38.27
46.12
56.16
67.42
78.74
89.06
97.60
103.69
106.64
105.57
99.71
88.87
73.85
56.36
38.33
21.12
5.03
-10.40
-25.52
-39.78
-51.60
-59.18
-61.68
-59.96
-56.30
-53.21
-52.13
-52.70
-53.24
-51.91
-47.91
-41.80
-35.08
-29.18
-24.63
-20.88
-16.96
-12.20
-6.72
-1.27
3.39
7.04
9.85
12.00
13.24
12.80
9.76
3.70
-4.82
-14.34
-23.10
-30.02
-34.75
-37.36
-37.94
-36.30
-32.59
-27.16
-20.82
-14.78
-10.74
-9.94
-12.60
-17.65
-22.67
-25.42
-23.76
-16.51
-4.02
11.13
25.43
35.57
39.56
37.34
29.21
16.53
0.63
-18.22
-41.82
-71.92
-108.25
-147.32
-182.85
-210.24
-227.35
-235.36
-232.02
-215.58
-184.33
-138.37
-84.13
-22.95
35.75
81.39
107.78
115.68
110.31
98.01
82.89
66.39
49.50
33.11
20.44
15.00
18.00
26.20
35.18
40.00
38.87
34.07
28.98
27.12
30.04
36.48
43.03
46.52
45.93
42.59
39.36
38.06
39.36
42.68
47.07
52.03
55.75
58.28
60.40
62.87
65.49
67.37
67.28
64.44
59.26
53.46
48.77
45.93
44.43
42.95
40.19
35.61
29.84
24.50
21.27
19.67
17.15
10.84
-0.10
-13.18
-23.48
-25.71
-17.01
1.07
20.91
31.96
25.56
-1.45
-46.11
-102.60
-165.18
-229.48
-281.76
-306.52
-293.51
-244.15
-170.15
-87.13
-10.56
47.60
81.78
94.10
90.81
79.76
67.51
57.64
51.32
47.25
43.30
37.92
30.62
20.01
4.75
-15.51
-40.99
-67.75
-91.01
-106.39
-111.24
-105.33
-91.80
-75.22
-57.05
-40.99
-28.07
-17.70
-8.52
-0.62
6.61
11.15
10.29
1.73
-15.55
-39.97
-68.82
-98.02
-123.30
-140.91
-149.01
-147.18
-136.63
-120.11
-100.18
-78.91
-55.97
-29.51
2.90
40.63
80.73
118.26
147.67
165.25
165.26
147.86
119.52
89.89
65.95
49.16
36.22
22.54
5.89
-10.95
-23.69
-28.32
-23.20
-9.88
8.36
28.84
51.09
77.45
105.68
134.26
160.67
181.78
195.21
200.54
199.01
191.94
179.01
157.66
125.63
83.11
34.34
-12.85
-49.99
-71.92
-79.26
-77.54
-73.52
-70.46
-66.97
-59.05
-44.09
-23.70
-3.52
9.94
13.10
7.19
-2.49
-10.11
-12.51
-10.50
-7.28
-5.76
-6.62
-8.21
-7.76
-4.17
1.74
7.41
9.93
7.61
0.68
-9.04
-19.11
-27.40
-32.72
-34.67
-33.47
-29.81
-24.62
-19.02
-14.01
-10.32
-8.19
-7.65
-8.30
-9.52
-10.64
-11.12
-10.66
-9.26
-7.11
-4.59
-2.43
-1.45
-2.56
-6.63
-14.16
-25.01
-38.24
-52.48
-64.69
-72.69
-75.45
-73.31
-67.61
-59.93
-51.56
-43.40
-36.17
-30.48
-26.91
-25.59
-25.90
-26.67
-26.54
-24.57
-20.51
-14.79
-8.16
-1.54
4.25
8.52
10.75
10.74
8.83
5.90
3.22
1.87
2.29
4.10
6.44
8.38
9.27
9.02
7.86
6.18
4.13
1.53
-2.01
-6.54
-11.55
-15.79
-17.66
-15.83
-9.83
-0.34
10.82
20.91
26.78
25.41
14.70
-5.73
-33.99
-65.84
-95.46
-116.89
-125.65
-119.87
-100.51
-70.57
-33.95
5.51
44.53
80.35
110.73
133.97
149.34
157.42
160.13
159.97
158.98
157.79
155.33
149.66
139.09
123.47
104.77
86.50
72.30
64.11
61.62
62.90
66.00
70.09
75.78
84.08
95.25
108.08
120.17
128.99
132.61
129.76
118.67
96.40
59.96
9.01
-52.38
-115.90
-171.84
-213.33
-238.42
-250.73
-256.76
-261.99
-267.64
-271.65
-271.32
-265.66
-256.46
-245.38
-233.37
-220.42
-205.70
-187.32
-164.40
-137.73
-109.28
-81.94
-56.06
-30.97
-5.96
19.89
49.06
83.50
123.22
165.58
205.17
238.85
265.04
283.60
284.66
262.65
220.54
169.47
129.54
101.17
81.14
66.98
54.83
44.17
37.09
35.52
39.64
47.55
55.10
60.61
63.51
63.63
61.47
58.91
57.63
58.07
59.21
58.37
54.88
48.96
41.12
32.15
23.32
15.43
8.35
1.16
-7.63
-17.79
-28.25
-37.85
-45.67
-51.15
-54.50
-56.52
-58.33
-61.00
-64.45
-68.02
-71.08
-73.26
-74.42
-74.65
-74.06
-72.61
-70.21
-66.46
-61.09
-54.10
-45.70
-36.14
-25.65
-14.39
-2.58
9.40
21.07
31.87
41.42
49.49
56.04
61.09
64.67
66.82
67.59
67.14
65.73
63.73
61.69
60.19
59.71
60.37
61.66
62.50
61.59
57.91
51.15
41.72
30.49
18.34
5.86
-6.64
-19.03
-31.28
-43.70
-57.18
-73.15
-92.96
-116.92
-143.41
-169.00
-189.61
-202.17
-205.93
-202.47
-194.64
-184.87
-174.29
-163.21
-152.17
-142.48
-135.74
-132.36
-130.69
-127.52
-119.19
-103.08
-78.44
-46.33
-9.25
29.23
64.61
91.75
105.55
103.07
85.34
57.66
28.15
5.30
-4.56
1.74
24.30
60.14
104.75
152.82
198.56
236.01
259.99
267.45
258.33
235.65
203.04
165.39
127.90
94.86
68.61
49.42
36.47
29.12
26.92
26.38
23.34
14.41
-1.98
-25.31
-53.13
-82.12
-109.81
-136.56
-168.96
-212.99
-269.08
-330.36
-385.99
-426.78
-449.85
-459.88
-443.48
-397.20
-327.87
-249.03
-171.40
-99.37
-34.81
19.53
60.55
87.37
100.05
103.04
103.98
110.68
127.44
153.75
185.89
219.85
249.83
269.30
273.81
261.62
233.94
194.42
148.66
103.56
65.65
38.96
22.64
13.00
5.70
-2.05
-10.86
-18.81
-21.98
-15.92
2.08
31.20
66.93
102.17
129.70
143.65
141.55
125.05
99.11
69.06
39.73
14.20
-6.34
-22.15
-34.27
-43.73
-51.21
-57.58
-65.18
-75.43
-88.42
-101.75
-111.22
-111.03
-95.43
-61.44
-11.60
44.82
97.51
138.68
166.45
183.25
195.16
208.49
221.04
235.01
242.67
237.31
217.11
186.25
149.12
109.99
69.79
36.01
14.71
6.02
6.50
6.50
3.02
-8.48
-31.18
-66.44
-107.72
-149.66
-188.99
-222.79
-248.77
-264.72
-274.11
-280.50
-286.20
-292.02
-300.14
-313.96
-335.66
-365.87
-380.57
-367.67
-329.06
-274.99
-212.68
-144.58
-72.34
0.09
66.38
120.85
156.89
173.38
174.86
168.76
160.64
152.77
145.54
139.41
136.09
134.72
135.05
136.56
139.30
143.35
148.81
156.52
167.82
184.16
204.36
226.66
249.33
270.53
288.23
300.42
304.88
300.03
286.27
264.98
238.64
209.62
175.63
135.83
90.90
41.59
-11.04
-64.24
-115.36
-163.35
-209.84
-259.67
-316.47
-376.83
-432.29
-471.84
-483.70
-460.31
-402.01
-318.03
-225.83
-144.46
-85.53
-54.49
-51.76
-71.65
-105.74
-146.03
-175.64
-182.35
-184.87
-195.06
-209.92
-228.93
-249.98
-269.29
-281.58
-281.42
-266.92
-239.40
-199.42
-150.63
-99.51
-50.82
-6.73
32.85
69.11
101.87
130.42
157.11
183.49
208.97
232.50
252.34
266.21
271.96
267.56
252.91
232.19
210.60
192.11
179.22
172.15
168.89
166.27
160.93
150.91
137.31
122.51
108.95
98.88
93.55
92.89
95.46
98.94
101.00
100.82
98.41
94.37
89.64
85.10
81.24
78.00
75.14
72.60
70.96
70.40
70.68
71.35
72.21
73.32
74.96
77.56
81.48
87.24
93.88
99.49
102.28
101.44
97.10
89.76
80.09
68.85
57.69
47.07
36.53
24.79
10.39
-8.31
-32.75
-63.19
-102.51
-144.68
-179.71
-200.88
-208.27
-204.72
-192.39
-172.71
-147.84
-121.71
-98.89
-84.59
-80.24
-84.14
-91.30
-95.62
-92.62
-80.80
-61.53
-36.63
-11.91
7.42
18.98
24.01
25.67
26.67
28.47
31.46
35.53
39.73
43.10
43.67
39.29
28.27
11.10
-10.31
-31.34
-46.25
-50.96
-44.75
-31.23
-15.76
-2.46
5.17
6.87
4.39
-0.87
-8.83
-19.06
-30.14
-38.08
-38.44
-29.58
-14.38
0.62
8.19
4.14
-11.40
-35.72
-63.96
-89.91
-108.76
-117.72
-115.45
-101.98
-78.54
-44.27
-5.94
27.10
49.84
64.85
77.90
94.77
114.04
131.39
142.58
145.24
141.72
132.85
122.02
111.79
103.05
94.59
83.97
67.50
39.26
-1.19
-48.51
-94.28
-131.88
-157.90
-171.79
-174.13
-166.34
-150.44
-128.07
-101.56
-73.86
-48.66
-28.50
-14.30
-5.04
1.01
5.26
8.96
12.27
15.49
18.23
20.44
22.09
23.14
22.91
20.67
16.67
12.39
10.51
14.07
25.78
46.04
71.82
96.44
112.24
113.83
99.89
73.43
38.43
2.65
-25.51
-37.85
-32.05
-12.70
12.60
37.66
59.22
76.11
87.87
93.22
91.78
81.89
63.70
40.44
17.08
-2.02
-15.32
-24.06
-31.86
-43.01
-59.74
-82.77
-110.92
-142.54
-176.97
-214.60
-254.74
-293.73
-324.50
-339.03
-331.73
-301.61
-252.93
-193.29
-130.57
-69.59
-10.91
48.18
111.12
176.65
237.76
285.65
314.35
320.91
304.15
264.95
208.40
144.55
86.10
44.77
26.90
31.94
53.21
81.54
108.90
129.70
139.98
136.81
121.68
95.15
61.47
26.91
-3.10
-26.13
-43.46
-58.98
-76.96
-98.10
-120.93
-142.43
-160.38
-174.58
-185.88
-195.20
-202.91
-208.22
-211.31
-208.23
-195.22
-170.50
-135.00
-91.87
-45.89
-2.24
35.11
64.58
85.91
99.17
103.66
98.81
86.52
71.79
61.31
61.06
74.70
98.47
126.50
152.12
164.09
157.09
133.97
103.08
72.85
48.77
32.25
22.94
19.62
22.61
29.92
39.76
50.06
54.74
53.08
46.80
38.54
30.20
22.76
16.94
13.52
12.22
11.52
9.70
4.90
-3.62
-15.05
-26.77
-36.50
-41.49
-40.25
-33.09
-21.98
-10.20
-0.96
3.53
2.36
-4.07
-13.76
-24.38
-31.95
-33.90
-30.09
-23.18
-16.17
-12.04
-13.29
-20.53
-32.23
-45.25
-56.92
-65.74
-71.75
-76.28
-79.04
-80.93
-82.45
-83.07
-78.58
-67.29
-50.85
-33.46
-18.87
-9.18
-1.98
5.53
15.41
28.49
43.21
57.48
69.60
78.73
84.89
88.27
89.06
87.63
84.41
79.40
72.82
65.31
57.93
51.78
47.50
44.96
43.49
42.00
39.07
33.76
26.04
16.73
7.13
-1.61
-8.90
-14.67
-19.11
-22.77
-26.16
-29.88
-34.61
-41.05
-49.71
-60.56
-72.63
-84.10
-92.89
-97.45
-97.52
-94.19
-89.38
-84.96
-81.98
-80.36
-79.12
-77.04
-73.00
-66.20
-56.01
-41.97
-23.92
-2.51
20.77
44.26
66.91
88.81
110.59
132.15
151.28
163.50
162.85
144.32
106.60
53.68
-5.74
-60.79
-101.79
-123.04
-124.24
-110.33
-89.09
-67.40
-48.37
-31.07
-12.41
10.35
37.60
66.86
92.95
110.48
116.72
113.01
103.32
91.69
80.60
71.05
63.18
55.72
46.51
33.67
16.09
-7.13
-37.20
-75.06
-119.97
-162.00
-187.06
-187.34
-167.87
-140.01
-112.42
-88.35
-67.63
-48.95
-31.46
-16.57
-7.11
-4.75
-8.37
-15.01
-21.55
-26.28
-28.07
-25.49
-17.57
-4.07
14.09
34.75
54.31
69.41
77.97
80.68
81.11
83.07
88.22
95.46
102.12
104.20
101.50
95.17
87.04
78.02
66.96
51.59
30.78
6.09
-18.38
-37.78
-49.72
-54.91
-56.37
-57.71
-61.14
-66.63
-72.33
-76.53
-76.98
-73.23
-65.82
-55.53
-43.19
-29.78
-16.74
-5.81
1.73
6.02
8.41
11.46
17.73
28.37
42.15
55.56
64.06
63.96
54.11
36.23
14.67
-5.17
-18.78
-24.12
-22.13
-16.02
-9.39
-4.85
-3.33
-4.19
-6.01
-7.72
-9.16
-10.87
-13.35
-16.27
-18.97
-20.87
-21.84
-22.32
-23.23
-25.62
-30.05
-36.02
-41.29
-43.64
-41.87
-36.10
-27.34
-16.87
-5.79
5.10
15.75
27.48
41.02
55.83
70.45
83.47
94.33
103.46
111.84
113.60
105.87
89.89
69.00
45.55
20.97
-2.68
-21.47
-34.34
-40.36
-38.74
-30.58
-18.66
-6.14
4.16
10.28
11.26
6.77
-2.45
-14.19
-25.87
-35.04
-39.90
-39.61
-34.66
-26.92
-19.24
-14.07
-12.34
-13.91
-17.94
-23.31
-28.82
-33.46
-36.52
-37.75
-36.87
-33.33
-26.55
-16.02
-1.66
15.97
35.43
54.52
70.71
82.03
87.51
87.14
81.57
71.68
58.50
43.26
27.43
12.70
0.75
-7.17
-10.56
-9.96
-6.90
-3.79
-3.32
-7.89
-18.84
-35.84
-56.64
-77.51
-94.28
-103.61
-103.97
-95.80
-81.00
-61.97
-40.96
-19.87
-0.45
15.52
26.36
31.08
29.89
24.34
16.80
9.65
4.33
1.03
-1.04
-2.89
-5.10
-7.61
-9.97
-11.82
-13.02
-13.66
-13.66
-12.60
-9.90
-5.30
0.67
6.69
11.16
13.07
12.60
10.97
9.81
10.27
12.45
15.58
18.57
20.59
21.35
20.99
19.89
18.52
17.25
16.23
15.31
13.92
11.41
7.57
3.23
0.50
2.27
10.98
27.49
50.26
75.69
99.32
117.52
128.78
134.04
135.86
136.81
137.72
137.14
131.90
118.53
94.63
59.47
14.31
-37.67
-91.33
-139.77
-175.25
-191.20
-184.90
-159.44
-123.80
-89.48
-65.88
-56.69
-59.20
-66.80
-72.84
-73.74
-69.75
-63.86
-58.41
-53.26
-46.42
-36.23
-23.05
-9.24
2.35
10.22
13.74
14.64
16.47
22.70
34.57
50.57
67.26
80.89
88.76
88.04
78.94
65.48
53.29
46.00
43.38
41.76
36.25
22.92
-2.29
-39.55
-84.17
-129.06
-168.59
-200.10
-223.40
-239.19
-231.09
-192.24
-132.78
-72.96
-26.90
2.60
19.68
29.86
37.42
