1673854801.00
64.000000
-0.00
-0.00
-0.00
-0.00
-0.00
-0.00
-0.00
-0.00
-0.00
-0.00
0.00
0.01
0.01
-0.00
-0.03
-0.05
-0.05
0.00
0.13
0.36
0.66
1.01
1.37
1.72
2.06
2.40
2.79
3.24
3.80
4.42
5.06
5.66
6.20
6.68
7.15
7.68
8.31
9.14
10.09
11.04
11.88
12.56
13.14
13.76
14.65
15.96
17.91
20.32
22.90
25.38
27.58
29.57
31.68
34.32
37.81
42.54
48.15
54.10
59.83
64.97
69.58
74.14
79.34
85.71
93.76
103.00
112.62
121.73
129.77
136.75
143.30
150.75
157.77
166.64
177.95
191.79
206.97
220.57
228.25
225.36
208.53
176.87
132.76
80.05
23.07
-34.94
-92.44
-149.16
-205.23
-260.37
-313.74
-363.87
-409.83
-450.91
-486.50
-515.74
-537.23
-549.22
-549.96
-538.37
-514.21
-478.67
-433.88
-382.45
-327.02
-269.84
-212.63
-156.66
-102.95
-52.37
-5.90
35.58
71.43
101.35
125.50
144.38
158.69
169.15
176.37
180.75
182.57
182.07
179.51
175.23
169.65
163.18
156.15
148.81
141.30
133.69
126.02
118.33
110.69
103.16
95.80
88.68
81.83
75.25
68.95
62.95
57.25
51.86
46.78
42.03
37.59
33.46
29.63
26.10
22.85
19.89
17.21
14.80
12.65
10.76
9.11
7.68
6.47
5.43
4.57
3.86
3.31
2.89
2.57
2.32
2.09
1.84
1.57
1.29
1.06
0.92
0.89
0.98
1.13
1.30
1.45
1.56
1.66
1.81
2.05
2.42
2.91
3.44
3.92
4.25
4.43
4.52
4.68
5.09
5.85
6.90
8.04
8.98
9.47
9.47
9.17
8.97
9.27
10.31
12.00
13.91
15.44
16.12
15.83
14.89
13.94
13.63
14.32
15.70
16.91
16.81
14.46
9.47
2.28
-6.05
-14.48
-22.13
-28.79
-34.86
-40.99
-47.94
-56.47
-67.30
-80.56
-94.89
-106.93
-111.78
-104.60
-83.12
-49.14
-8.45
31.44
64.18
86.62
98.89
102.78
99.96
91.29
77.30
59.42
40.27
22.94
9.67
1.08
-3.62
-5.45
-4.79
-1.71
3.37
8.90
12.54
12.33
8.06
1.54
-4.36
-7.29
-6.53
-2.94
1.97
7.16
12.34
17.53
22.30
25.54
25.81
22.38
15.87
8.22
1.84
-1.46
-1.16
1.86
6.26
10.80
14.80
18.05
20.43
21.64
21.18
19.24
15.92
11.76
7.69
4.67
3.21
3.13
3.56
3.48
2.30
0.11
-2.21
-3.67
-3.75
-2.83
-1.87
-1.81
-2.89
-4.53
-5.68
-5.55
-4.11
-2.19
-0.98
-1.26
-3.05
-5.60
-7.96
-9.49
-10.13
-10.19
-10.02
-9.75
-9.26
-8.36
-7.00
-5.34
-3.67
-2.25
-1.28
-0.88
-1.19
-2.28
-4.02
-6.06
-7.88
-9.02
-9.31
-8.93
-8.23
-7.50
-6.70
-5.52
-3.60
-0.85
2.34
5.21
6.94
7.05
5.63
3.37
1.15
-0.32
-0.83
-0.73
-0.59
-0.92
-1.86
-3.21
-4.59
-5.79
-6.82
-7.82
-8.83
-9.75
-10.34
-10.45
-10.16
-9.75
-9.53
-9.62
-9.87
-10.04
-9.83
-9.17
-8.16
-7.05
-6.11
-5.54
-5.37
-5.50
-5.70
-5.65
-5.17
-4.25
-3.13
-2.20
-1.77
-1.96
-2.60
-3.40
-4.18
-4.92
-5.77
-6.89
-8.25
-9.65
-10.76
-11.32
-11.19
-10.49
-9.46
-8.46
-7.86
-7.98
-9.02
-11.01
-13.74
-16.71
-19.18
-20.17
-18.64
-13.92
-6.09
3.72
13.58
21.38
25.62
25.92
22.94
17.85
11.67
5.05
-1.64
-7.81
-12.59
-15.04
-14.81
-12.49
-9.48
-7.32
-6.85
-7.92
-9.58
-10.83
-11.21
-10.97
-10.69
-10.88
-11.55
-12.27
-12.54
-12.14
-11.13
-9.81
-8.44
-7.10
-5.68
-4.09
-2.37
-0.73
0.54
1.19
1.18
0.62
-0.19
-0.91
-1.26
-1.07
-0.34
0.79
2.05
3.12
3.68
3.36
1.92
-0.66
-3.94
-6.95
-8.47
-7.62
-4.37
0.15
4.15
6.00
5.13
2.41
-0.29
-1.05
1.03
5.43
10.47
14.29
15.75
14.92
12.91
11.32
11.52
14.04
18.44
23.56
28.07
31.11
32.70
33.68
35.38
39.01
45.05
52.99
61.43
68.69
73.62
75.98
76.38
76.21
77.34
81.74
91.34
107.59
131.02
160.53
193.10
223.48
245.68
254.60
247.42
224.38
188.16
142.59
90.81
34.48
-27.30
-94.65
-164.47
-229.54
-280.17
-308.76
-314.20
-303.17
-287.38
-279.50
-286.28
-306.48
-332.90
-357.12
-374.04
-383.26
-386.93
-386.10
-380.58
-367.34
-343.23
-307.90
-265.25
-222.84
-189.15
-170.07
-154.06
-129.84
-88.73
-29.60
40.55
111.52
174.23
223.70
259.23
282.67
294.93
296.73
288.95
273.65
254.27
234.61
217.44
203.80
192.74
180.27
161.67
133.33
94.54
48.73
2.80
-33.89
-51.82
-44.45
-12.10
37.27
90.15
132.42
154.71
154.31
135.87
108.32
80.33
60.86
54.80
61.01
74.44
90.61
106.23
120.36
132.64
141.98
146.39
143.90
134.20
119.45
103.68
89.00
76.04
63.42
48.59
29.10
3.28
-29.06
-66.66
-98.62
-119.95
-129.55
-129.88
-124.59
-116.55
-106.88
-94.89
-85.03
-72.95
-56.88
-36.96
-15.75
4.00
20.70
34.36
46.01
56.47
66.15
75.48
81.54
78.95
63.26
32.70
-11.34
-65.55
-126.43
-190.93
-258.85
-316.82
-353.50
-363.99
-352.94
-330.51
-305.20
-279.67
-250.39
-211.86
-160.09
-97.39
-31.20
28.66
74.26
102.56
115.74
119.51
119.65
119.77
119.17
115.63
107.77
96.70
85.37
76.75
72.25
71.24
71.78
70.70
65.92
57.29
46.44
35.87
27.58
22.23
19.17
16.97
13.72
8.24
0.50
-8.52
-17.40
-25.03
-31.06
-35.87
-40.18
-44.85
-50.22
-56.01
-61.43
-65.52
-67.47
-66.83
-63.58
-57.98
-50.43
-41.66
-31.68
-20.71
-9.06
2.77
14.19
24.59
33.44
40.37
45.22
48.06
49.02
48.33
46.29
43.20
39.35
34.95
30.19
25.19
20.06
14.79
9.44
4.06
-1.35
-6.80
-12.28
-17.81
-23.43
-29.12
-34.97
-40.84
-46.61
-52.21
-57.58
-62.66
-67.38
-71.73
-75.70
-79.39
-82.58
-85.19
-87.23
-88.75
-89.87
-90.75
-91.56
-92.54
-94.00
-95.82
-97.96
-100.35
-102.81
-105.03
-106.51
-106.57
-104.26
-101.38
-98.52
-96.05
-94.15
-92.90
-92.29
-92.23
-92.59
-93.33
-94.66
-96.54
-99.15
-102.68
-107.25
-112.69
-118.67
-124.70
-130.48
-135.99
-141.13
-146.00
-150.57
-154.49
-156.83
-156.32
-151.37
-140.92
-124.67
-102.98
-76.89
-47.60
-16.10
17.49
53.54
93.24
137.15
184.80
234.78
284.98
333.42
378.36
419.68
458.19
496.75
538.28
585.12
638.22
696.06
754.21
804.90
840.65
855.67
849.94
827.23
793.84
756.41
719.50
684.99
651.31
617.86
584.65
554.96
531.17
513.74
501.03
489.72
476.70
458.80
437.37
397.00
330.43
237.11
124.35
5.18
-107.50
-193.60
-254.93
-297.83
-328.24
-347.62
-356.68
-358.17
-353.92
-346.23
-337.09
-329.36
-322.45
-314.66
-302.33
-283.31
-257.60
-227.05
-195.22
-166.01
-144.00
-130.54
-125.19
-125.24
-128.00
-131.40
-134.13
-135.94
-137.05
-138.67
-140.59
-142.13
-142.01
-139.49
-134.58
-127.93
-120.80
-114.50
-110.40
-108.57
-108.39
-108.77
-108.86
-108.35
-107.51
-106.99
-107.41
-108.99
-110.96
-112.01
-110.87
-106.98
-100.85
-94.03
-88.68
-86.85
-89.81
-97.63
-109.61
-124.70
-142.28
-162.50
-186.27
-214.95
-250.10
-293.39
-346.19
-408.51
-477.72
-547.85
-610.17
-655.52
-677.49
-674.79
-651.82
-616.68
-577.79
-540.98
-508.19
-478.47
-449.87
-421.23
-392.49
-364.21
-336.72
-309.63
-282.23
-253.93
-224.90
-195.94
-168.27
-142.54
-118.60
-95.66
-72.36
-47.51
-20.20
9.70
41.74
75.03
108.75
141.97
173.60
203.01
229.74
254.02
275.95
295.75
313.39
328.70
341.44
351.17
358.69
365.03
371.06
376.09
378.15
374.95
365.58
351.42
335.39
321.42
308.47
293.08
269.92
234.53
186.27
129.15
72.91
22.87
-18.43
-50.78
-74.52
-89.74
-96.69
-95.47
-86.71
-71.53
-52.19
-30.52
-8.35
12.82
32.11
48.64
61.85
71.71
78.94
84.70
90.97
99.33
110.24
123.37
137.30
150.96
164.47
179.91
200.62
230.54
272.38
320.71
368.58
408.37
433.79
440.38
424.89
384.82
319.92
234.33
137.85
45.17
-29.65
-78.68
-103.42
-113.40
-120.72
-133.38
-151.28
-167.27
-171.93
-160.35
-135.61
-107.34
-86.39
-79.07
-84.47
-95.71
-104.90
-107.33
-103.71
-98.58
-96.63
-99.26
-103.73
-105.29
-100.34
-88.86
-74.13
-60.90
-52.71
-50.47
-52.25
-54.51
-54.12
-49.69
-42.00
-33.31
-26.09
-21.90
-20.84
-21.76
-22.99
-23.12
-21.25
-17.06
-10.85
-3.55
3.32
8.21
10.45
10.70
10.75
12.38
16.14
20.80
23.85
23.15
18.21
10.79
3.79
-0.31
-0.72
1.60
4.86
7.70
9.95
12.25
15.53
20.20
25.87
31.64
36.57
39.83
40.99
39.87
36.33
30.37
22.18
12.12
0.82
-10.81
-21.83
-31.40
-39.13
-45.03
-49.33
-52.17
-53.51
-53.04
-50.57
-46.15
-40.30
-34.14
-29.02
-25.78
-24.37
-23.82
-22.46
-19.07
-13.50
-6.67
-0.20
4.28
6.36
6.94
7.40
8.63
10.16
10.80
10.00
9.32
11.91
21.57
40.59
68.02
100.00
131.34
157.93
177.91
190.97
195.96
190.23
170.73
137.24
95.36
56.47
34.20
37.89
67.53
112.06
154.38
178.69
177.38
153.58
118.24
84.00
58.76
47.35
47.68
53.35
57.79
57.33
52.12
44.20
35.10
24.44
10.39
-9.09
-33.76
-60.29
-83.70
-99.77
-107.21
-107.96
-105.62
-103.33
-102.87
-104.09
-105.55
-105.65
-103.28
-97.88
-89.47
-78.53
-66.37
-55.49
-48.77
-48.60
-56.43
-72.87
-97.48
-128.26
-161.25
-190.67
-210.12
-214.42
-201.76
-175.08
-141.93
-111.36
-90.18
-79.64
-74.89
-67.41
-49.39
-18.51
20.00
54.13
72.11
68.96
49.40
25.22
8.84
7.06
17.30
29.47
29.39
8.63
-31.66
-82.85
-135.10
-182.24
-222.15
-253.90
-274.53
-281.73
-271.63
-242.48
-199.19
-155.24
-127.92
-129.04
-157.93
-201.40
-245.14
-276.82
-290.90
-289.76
-280.85
-270.47
-258.51
-239.18
-179.03
-70.46
62.29
178.94
252.78
282.43
283.57
276.07
273.78
280.67
288.52
288.02
275.51
254.22
230.33
209.19
193.75
184.12
177.93
169.03
153.56
132.67
110.94
92.16
77.26
65.01
53.82
42.69
31.20
21.37
17.11
22.67
40.15
69.11
107.95
154.83
207.05
262.09
314.36
353.34
369.26
357.15
320.29
269.49
223.39
188.74
167.63
158.28
156.13
156.93
156.90
153.55
146.48
137.79
129.85
125.28
123.84
121.83
114.07
95.96
65.23
22.21
-30.54
-90.46
-154.37
-219.52
-283.45
-343.20
-395.23
-435.87
-462.67
-474.87
-474.34
-464.23
-448.66
-432.03
-418.14
-409.79
-409.13
-418.03
-437.23
-465.61
-498.48
-528.29
-546.60
-547.10
-527.72
-491.32
-444.31
-393.72
-344.90
-300.10
-259.14
-220.97
-185.14
-151.87
-121.87
-96.04
-74.98
-59.17
-49.20
-45.18
-46.79
-53.13
-62.38
-72.14
-79.61
-81.73
-76.19
-62.13
-40.26
-12.71
17.70
48.00
75.97
100.40
121.52
140.23
157.45
174.00
190.16
205.88
220.55
233.39
243.33
250.11
253.53
253.02
248.30
239.57
227.59
213.44
198.39
183.50
171.38
164.03
162.41
166.76
177.44
195.09
219.78
251.25
288.02
331.02
379.40
430.17
479.19
523.41
562.47
597.71
632.34
668.09
709.36
755.32
798.81
829.09
837.07
819.49
778.39
722.12
660.06
607.20
572.51
555.69
548.85
542.15
528.93
506.00
476.52
399.01
258.13
69.59
-127.50
-296.48
-420.22
-489.70
-522.63
-532.91
-530.66
-515.95
-489.05
-454.57
-419.01
-388.55
-366.52
-353.91
-346.37
-338.98
-322.78
-294.28
-257.80
-223.42
-200.98
-195.57
-206.16
-224.79
-243.08
-252.58
-250.71
-240.36
-226.96
-214.81
-207.11
-205.22
-207.78
-213.37
-219.54
-225.09
-229.71
-233.29
-235.10
-236.27
-237.46
-237.28
-233.79
-224.80
-209.50
-188.30
-162.37
-133.03
-105.10
-83.17
-69.64
-65.32
-70.19
-84.66
-109.51
-145.33
-170.72
-171.22
-145.46
-104.71
-62.78
-27.24
0.55
22.16
39.85
55.67
67.80
74.27
75.41
72.92
69.35
66.09
63.28
60.67
58.35
54.53
44.54
31.61
20.17
15.01
18.89
32.41
54.95
85.10
119.78
155.80
190.91
223.71
253.90
279.95
299.86
312.27
316.57
312.87
300.83
279.41
248.95
209.80
164.92
119.00
77.95
46.12
26.73
19.54
22.37
23.54
21.64
15.58
3.83
-14.15
-38.45
-67.46
-92.43
-111.86
-125.81
-137.17
-151.47
-174.28
-207.76
-250.94
-297.82
-346.41
-397.95
-428.23
-420.45
-373.24
-301.39
-223.99
-177.28
-159.15
-161.93
-181.22
-215.39
-254.21
-295.29
-339.76
-386.59
-431.91
-467.14
-488.61
-495.79
-488.85
-470.60
-423.19
-340.12
-226.34
-95.84
39.13
168.25
285.29
386.17
465.34
520.00
548.09
550.91
534.03
507.27
477.34
447.20
416.46
382.46
338.11
279.44
207.25
126.21
44.01
-32.79
-98.29
-147.97
-178.98
-189.95
-181.70
-156.19
-116.30
-65.59
-9.17
48.12
101.41
145.89
177.64
193.85
193.40
177.25
148.28
105.55
53.39
-0.15
-48.13
-88.18
-122.23
-153.47
-183.49
-211.35
-234.71
-253.09
-265.09
-270.88
-271.34
-267.00
-257.90
-243.99
-225.41
-202.86
-176.67
-147.52
-117.81
-89.89
-65.22
-44.17
-26.52
-11.83
0.20
10.07
18.23
24.62
29.34
32.86
35.92
39.17
42.92
47.03
51.05
54.47
56.40
56.28
53.97
49.81
44.41
38.41
32.41
26.85
22.10
18.15
14.91
12.19
9.61
6.73
3.14
-1.61
-7.87
-15.73
-25.18
-35.94
-47.55
-59.52
-71.33
-82.54
-92.85
-102.09
-110.10
-116.92
-122.60
-127.20
-130.78
-133.35
-134.92
-135.51
-135.13
-133.76
-131.41
-128.20
-124.20
-119.51
-114.15
-108.17
-101.63
-94.55
-86.78
-78.27
-68.94
-58.77
-47.78
-36.06
-23.81
-11.27
1.19
13.25
24.48
34.56
43.20
50.12
55.15
58.15
59.02
57.71
54.28
48.82
41.62
33.14
23.89
14.55
5.83
-1.54
-7.00
-10.13
-10.78
-9.01
-5.17
0.51
7.64
15.48
23.18
29.86
35.07
38.85
41.77
44.68
48.79
55.02
63.61
74.05
85.35
96.46
106.58
115.39
122.98
130.59
139.26
149.20
159.68
169.42
177.40
183.39
187.96
192.23
200.02
213.98
234.44
258.98
283.57
304.68
320.75
332.42
341.77
356.90
384.02
424.91
475.95
530.02
580.21
622.45
655.88
682.01
712.93
759.59
827.83
915.45
1012.95
1107.42
1186.39
1240.34
1264.54
1272.18
1279.27
1298.27
1332.43
1375.77
1418.29
1451.71
1472.18
1404.39
1204.28
866.86
435.30
-19.53
-434.43
-774.56
-1031.91
-1214.44
-1336.11
-1399.40
-1407.76
-1369.10
-1297.84
-1212.52
-1129.61
-1059.03
-1003.92
-963.05
-923.82
-875.64
-813.79
-741.37
-666.61
-599.16
-545.14
-506.29
-481.41
-461.73
-439.53
-410.85
-376.49
-341.12
-310.13
-286.74
-271.74
-263.99
-257.91
-248.28
-231.81
-207.98
-179.65
-151.21
-126.72
-109.43
-101.36
-99.59
-101.83
-106.33
-111.67
-118.27
-127.78
-142.18
-163.45
-193.04
-231.35
-277.37
-327.39
-372.97
-403.69
-410.38
-388.07
-338.12
-267.59
-186.51
-104.96
-29.81
38.22
101.32
161.49
218.76
271.24
317.04
355.51
387.09
402.65
395.47
364.30
314.83
255.75
194.12
134.25
78.50
28.09
-16.17
-52.49
-80.21
-100.44
-116.10
-130.65
-146.41
-163.60
-182.33
-200.12
-212.61
-216.25
-209.14
-191.29
-164.18
-129.67
-89.51
-45.48
-1.25
40.39
77.23
107.65
130.34
144.66
150.88
150.04
143.76
133.92
122.73
111.81
102.13
93.84
86.57
79.93
73.49
67.07
60.76
54.94
49.78
45.43
41.69
38.23
34.88
31.64
28.73
26.44
25.11
24.72
25.30
26.63
28.48
30.87
34.08
38.49
44.20
52.13
60.44
67.51
71.81
72.33
68.93
62.52
54.76
47.49
42.09
38.83
37.33
36.78
36.39
35.85
35.45
35.88
37.94
42.33
49.45
59.36
70.98
81.39
86.03
80.17
61.08
29.90
-8.10
-45.19
-73.82
-89.45
-91.63
-83.18
-67.81
-48.10
-24.83
2.35
33.42
66.95
100.25
130.37
155.24
174.05
186.90
193.42
192.72
184.60
169.73
150.58
130.97
114.90
104.94
101.57
103.11
107.28
112.40
117.25
120.48
120.04
113.37
98.66
76.13
47.52
16.37
-13.34
-39.11
-60.50
-78.42
-93.90
-106.93
-116.27
-122.42
-125.42
-124.57
-119.17
-109.33
-96.22
-81.65
-67.47
-55.24
-50.51
-56.76
-73.77
-98.75
-129.00
-163.05
-200.40
-240.66
-283.10
-333.39
-393.71
-460.28
-525.12
-580.60
-621.75
-646.20
-653.10
-642.72
-625.54
-609.26
-595.49
-581.54
-565.55
-548.85
-534.98
-527.55
-473.21
-352.63
-186.03
-17.02
121.30
219.14
281.93
319.92
342.87
358.44
362.23
351.77
330.28
305.11
282.55
264.92
251.14
238.81
226.54
207.73
181.44
153.74
133.59
125.43
125.80
125.77
114.69
90.73
53.90
11.13
-25.89
-45.84
-44.07
-23.35
9.36
47.01
84.57
115.36
133.10
133.64
116.76
86.05
48.46
12.75
-12.94
-24.13
-22.52
-13.99
-4.34
3.62
9.73
16.19
23.55
29.56
30.30
25.40
12.10
-13.92
-50.47
-89.67
-121.30
-138.34
-141.13
-137.08
-136.35
-145.76
-163.39
-179.41
-182.99
-169.30
-142.70
-113.90
-93.39
-85.57
-87.56
-91.26
-88.42
-75.54
-54.58
-30.32
-6.50
17.07
44.36
80.77
130.70
195.48
272.65
357.06
442.15
520.80
585.57
629.04
645.18
631.99
593.32
538.22
478.02
422.04
374.42
333.84
295.79
255.99
213.02
168.30
124.21
82.05
41.35
0.80
-40.00
-80.02
-117.47
-150.90
-180.72
-209.54
-241.23
-279.16
-323.82
-371.26
-413.33
-439.97
-442.83
-418.88
-371.87
-311.02
-247.24
-189.00
-139.72
-98.08
-60.44
-23.43
14.16
51.36
85.83
114.79
135.91
148.22
153.31
155.73
162.29
178.90
207.07
241.82
272.94
289.66
286.32
265.82
238.09
214.96
203.94
205.12
212.51
218.90
220.98
221.02
224.58
235.70
253.44
271.43
281.38
277.39
258.66
229.13
194.61
159.49
125.09
90.46
54.25
16.62
-20.33
-53.74
-81.83
-105.01
-125.85
-147.83
-173.59
-204.06
-238.09
-272.99
-305.74
-334.11
-357.69
-378.10
-398.50
-422.11
-450.20
-480.25
-505.28
-515.51
-501.59
-458.73
-388.89
-300.61
-205.68
-114.76
-34.01
35.97
98.59
158.60
219.50
282.11
344.36
401.81
448.68
479.17
489.20
478.33
450.95
415.47
381.90
358.09
346.86
345.12
345.71
340.64
324.29
294.97
254.46
206.58
155.48
104.88
57.92
17.12
-15.39
-38.72
-53.85
-63.71
-72.50
-84.91
-104.72
-133.55
-169.56
-207.05
-237.85
-254.56
-254.67
-242.85
-229.60
-225.90
-237.10
-259.16
-280.06
-285.79
-267.07
-223.29
-161.14
-89.83
-16.50
55.17
122.93
182.95
228.81
253.94
255.31
235.97
204.63
172.35
148.00
135.59
134.22
139.99
148.81
158.04
166.84
175.32
183.69
191.54
197.97
201.88
202.43
199.43
193.26
184.68
174.35
162.51
148.82
132.60
113.26
90.71
65.63
39.37
13.55
-10.51
-32.09
-51.30
-68.68
-84.65
-99.10
-110.93
-118.31
-119.27
-112.75
-98.60
-78.18
-53.87
-28.45
-4.86
14.19
26.19
29.18
22.52
7.32
-13.91
-38.43
-64.54
-92.34
-122.99
-157.26
-193.97
-229.80
-260.32
-282.45
-296.21
-304.94
-313.72
-326.75
-345.37
-367.89
-390.92
-411.02
-426.18
-435.92
-441.03
-443.47
-445.70
-450.40
-459.86
-474.68
-492.89
-510.00
-520.44
-520.02
-508.03
-487.58
-463.93
-442.17
-424.96
-412.20
-402.08
-392.88
-384.23
-377.18
-373.06
-372.10
-373.15
-374.20
-373.67
-371.10
-367.22
-363.22
-359.93
-357.02
-352.62
-344.03
-328.56
-304.61
-272.30
-233.45
-190.83
-147.20
-104.89
-64.82
-26.78
10.17
46.70
82.54
116.57
147.41
174.07
195.99
213.70
228.54
242.44
257.78
277.37
304.68
343.02
394.24
456.09
522.83
586.62
640.28
679.28
702.61
712.12
710.81
701.65
684.91
661.61
634.86
610.12
592.29
582.23
575.66
564.49
540.20
493.22
420.70
327.61
225.18
125.35
36.19
-38.57
-98.43
-144.33
-184.01
-223.37
-263.76
-301.75
-332.93
-355.30
-368.98
-375.57
-377.36
-385.40
-408.33
-448.06
-499.42
-555.00
-610.44
-664.61
-719.13
-723.12
-648.39
-503.02
-328.25
-167.06
-41.62
45.99
105.60
151.07
195.79
240.54
281.60
314.80
338.45
352.38
357.10
354.78
348.96
343.54
334.46
317.08
290.12
257.71
226.30
200.97
183.97
174.69
170.80
165.19
152.42
131.31
105.60
80.76
61.09
48.49
42.50
41.29
40.37
36.00
26.75
13.95
0.06
-12.70
-22.94
-30.71
-35.76
-39.04
-41.30
-42.56
-42.04
-38.91
-33.10
-24.96
-15.51
-5.91
2.68
9.46
14.17
17.11
18.78
19.54
19.88
20.09
20.12
19.54
17.66
13.73
7.10
-2.80
-16.28
-33.20
-52.86
-74.21
-96.04
-117.10
-136.23
-152.51
-165.39
-174.82
-181.15
-184.83
-186.64
-187.48
-188.25
-189.56
-191.48
-193.42
-193.87
-193.58
-191.59
-186.33
-176.07
-159.33
-135.22
-103.71
-65.87
-23.78
19.61
61.27
97.96
126.68
145.13
152.08
147.52
132.45
108.80
79.03
46.17
13.11
-17.59
-43.96
-64.60
-78.81
-86.57
-88.32
-84.87
-77.00
-65.63
-51.60
-35.63
-18.36
-0.57
16.80
32.75
46.24
56.57
63.43
67.02
68.07
67.57
66.39
65.01
63.45
61.19
57.60
52.28
45.42
37.82
30.56
24.49
19.81
15.87
11.51
5.65
-1.98
-10.47
-17.83
-21.79
-20.79
-14.76
-5.41
4.52
12.57
17.64
20.40
23.13
28.49
38.48
53.98
74.69
99.27
125.17
148.38
163.76
166.82
155.82
133.53
107.13
85.78
77.13
84.04
103.70
129.47
154.47
174.79
190.82
206.07
224.22
246.41
270.27
291.17
305.07
310.96
311.53
311.62
314.96
321.35
326.28
323.08
306.91
277.69
240.56
203.39
173.18
153.36
142.86
137.80
133.52
126.43
114.75
98.75
80.84
64.83
54.26
50.31
50.46
48.98
39.67
19.29
-10.68
-45.06
-78.11
-106.25
-129.02
-147.44
-162.23
-172.98
-178.91
-180.27
-178.06
-172.50
-161.65
-142.02
-111.37
-72.75
-35.68
-13.18
-15.94
-46.67
-98.32
-157.17
-208.64
-242.63
-256.08
-252.66
-240.16
-227.22
-220.15
-220.55
-225.18
-227.50
-220.70
-200.80
-168.24
-126.78
-80.72
-32.88
16.32
65.39
109.61
141.06
152.18
140.94
113.84
84.58
68.47
78.15
116.92
178.64
251.73
324.82
391.01
448.61
499.01
543.48
585.86
628.39
671.92
715.60
756.48
789.21
806.83
802.64
771.89
719.27
653.72
585.20
521.21
464.79
415.40
371.35
332.18
274.78
187.82
69.54
-70.85
-216.68
-351.19
-462.95
-547.07
-597.51
-620.41
-618.71
-596.26
-559.30
-516.88
-479.37
-455.95
-452.79
-469.14
-498.65
-526.48
-537.53
-521.01
-474.07
-402.43
-318.61
-237.35
-170.88
-126.80
-104.07
-97.69
-101.99
-112.60
-126.92
-143.30
-160.08
-175.66
-190.48
-205.97
-225.60
-253.25
-291.01
-337.80
-389.78
-441.64
-488.04
-524.62
-546.78
-550.47
-533.17
-495.69
-442.70
-381.76
-320.85
-265.59
-218.29
-177.98
-142.50
-110.09
-80.12
-52.54
-27.27
-3.67
19.11
41.89
65.13
89.18
114.49
141.64
170.97
201.96
232.88
261.14
284.10
299.91
307.93
308.46
302.27
290.17
273.27
253.30
232.79
214.33
199.28
186.68
173.64
157.15
136.43
114.24
95.98
86.78
88.22
97.09
106.48
109.22
101.59
84.92
64.53
46.88
36.45
34.11
37.61
43.23
47.70
49.19
47.35
42.93
37.20
31.53
27.15
24.83
24.71
26.34
28.95
31.80
34.60
37.55
41.00
45.06
49.22
52.37
53.25
51.16
46.17
39.31
32.18
26.23
22.43
20.96
21.11
21.74
21.82
21.00
20.04
20.66
24.76
33.35
45.58
58.61
68.90
73.93
73.46
69.43
64.45
60.23
56.87
53.35
48.96
44.44
41.62
42.19
46.31
52.04
55.89
54.24
44.60
26.52
1.73
-26.41
-53.94
-77.12
-93.25
-100.78
-99.05
-88.25
-69.35
-44.55
-17.42
7.64
26.87
38.83
45.22
50.26
58.25
71.25
87.84
104.16
116.52
123.71
127.65
132.05
140.07
152.14
165.47
175.27
176.78
167.13
146.15
116.28
81.67
47.24
17.41
-5.09
-20.01
-29.85
-39.00
-52.11
-71.97
-98.56
-129.44
-161.81
-194.45
-228.33
-265.30
-305.66
-346.28
-380.53
-400.57
-400.52
-379.29
-341.37
-295.23
-250.37
-214.02
-189.42
-175.87
-170.08
-168.02
-165.90
-160.73
-150.47
-134.47
-113.73
-91.03
-70.36
-55.22
-46.89
-43.44
-40.48
-33.20
-18.96
1.50
24.48
45.15
59.64
66.40
65.96
59.74
48.97
34.26
16.55
-1.77
-16.58
-23.24
-18.73
-3.72
17.24
37.54
51.51
56.65
54.28
48.12
41.77
37.07
33.72
30.52
26.55
22.01
18.03
16.09
17.33
22.02
29.17
36.59
41.46
41.46
36.11
27.59
20.34
19.15
26.41
40.10
53.85
59.69
51.88
30.08
-0.46
-31.61
-56.36
-71.74
-78.92
-81.27
-81.93
-82.62
-84.25
-88.23
-96.70
-111.13
-130.21
-149.02
-160.52
-159.29
-144.76
-122.06
-99.52
-84.42
-79.61
-82.78
-88.72
-92.63
-92.54
-89.44
-85.48
-81.84
-77.53
-69.89
-56.48
-37.17
-14.95
5.12
18.49
23.87
24.41
26.51
36.31
56.17
82.94
109.29
127.53
133.66
129.56
121.35
115.60
115.27
118.25
119.20
113.71
101.69
87.80
78.82
79.31
88.90
102.46
113.18
116.38
111.72
102.59
93.31
86.57
82.49
79.53
76.54
73.82
72.62
73.95
77.56
82.09
86.05
88.83
90.68
92.08
92.91
92.21
88.99
83.09
75.68
68.82
64.03
61.34
59.17
55.40
48.83
39.98
30.67
22.84
17.05
11.98
5.01
-6.07
-21.61
-39.37
-55.10
-64.47
-65.03
-57.35
-44.74
-31.71
-22.00
-17.17
-16.38
-17.22
-17.22
-15.23
-11.62
-7.84
-5.28
-4.50
-5.21
-6.74
-8.60
-10.62
-12.67
-14.43
-15.51
-15.68
-15.09
-14.03
-12.62
-10.51
-7.18
-2.41
3.26
8.45
11.60
11.74
9.02
4.72
0.64
-1.80
-2.21
-1.40
-0.82
-1.80
-4.79
-9.04
-12.98
-14.93
-14.14
-11.14
-7.41
-4.27
-2.07
-0.06
2.60
5.85
8.26
7.80
3.47
-3.84
-11.37
-16.06
-16.03
-11.36
-3.58
5.52
14.84
24.06
32.70
39.49
42.47
40.09
32.44
21.71
11.30
4.34
2.17
3.89
7.08
8.86
7.00
0.41
-10.68
-24.73
-39.18
-51.11
-58.11
-59.04
-54.45
-46.36
-37.36
-29.61
-24.12
-20.78
-18.73
-17.06
-15.25
-13.07
-10.45
-7.28
-3.54
0.47
4.00
6.15
6.14
3.75
-0.57
-5.72
-10.09
-12.16
-11.06
-7.01
-1.28
4.22
7.80
8.65
7.21
4.80
2.80
1.83
1.61
1.46
1.08
1.13
2.87
7.17
13.46
19.52
22.32
19.33
9.97
-3.99
-18.94
-30.65
-35.62
-32.10
-20.27
-2.01
19.95
42.85
64.52
83.60
99.20
110.57
117.01
118.17
114.57
107.89
100.53
94.66
90.92
87.55
80.85
66.73
42.86
10.29
-26.37
-60.23
-84.65
-95.78
-94.02
-84.13
-73.26
-68.07
-72.13
-84.73
-101.65
-117.63
-128.91
-134.68
-136.59
-136.80
-136.04
-133.17
-126.28
-114.66
-100.07
-86.32
-77.46
-75.57
-79.69
-86.25
-90.82
-89.99
-82.48
-68.98
-51.29
-31.15
-9.69
12.73
36.13
60.28
84.14
105.40
120.64
126.07
118.67
97.21
63.13
20.59
-24.35
-65.24
-96.96
-117.11
-126.20
-126.93
-122.64
-115.85
-107.46
-96.97
-83.55
-67.26
-49.42
-32.13
-17.12
-4.73
6.05
16.75
28.24
40.06
50.51
57.57
60.03
58.30
54.24
50.36
48.63
49.73
53.14
57.74
62.56
67.28
72.27
78.15
85.53
94.58
104.95
115.80
126.07
134.78
141.28
145.25
146.68
145.72
142.63
137.74
131.57
124.99
119.09
115.05
113.59
114.60
117.01
119.28
120.12
119.13
116.71
113.50
109.77
104.70
96.66
83.78
64.55
38.26
4.99
-34.46
-78.56
-124.52
-168.13
-204.08
-227.14
-233.63
-222.54
-195.53
-155.64
-105.87
-48.27
15.51
83.06
150.42
212.20
263.24
300.47
324.15
337.50
345.16
351.05
356.86
361.94
363.84
359.75
347.50
326.22
296.23
258.91
216.78
173.88
135.59
107.51
93.77
94.88
106.72
121.54
130.87
128.86
114.57
91.97
67.53
47.49
35.62
32.83
38.37
51.12
70.18
94.39
121.58
148.13
169.62
181.92
182.27
170.12
147.11
116.40
81.69
46.17
11.93
-20.38
-51.09
-80.85
-109.99
-138.29
-164.96
-189.16
-210.48
-229.49
-247.85
-267.92
-291.88
-320.91
-354.58
-390.88
-426.95
-459.77
-487.28
-508.94
-525.69
-539.60
-553.48
-570.40
-593.10
-622.84
-658.00
-693.48
-721.40
-733.49
-723.98
-692.04
-641.81
-580.43
-514.84
-449.36
-385.24
-322.10
-260.05
-200.92
-147.90
-103.43
-67.86
-38.79
-12.26
15.14
44.97
76.69
108.51
138.78
166.80
192.45
215.39
234.62
248.52
255.50
254.51
245.03
226.30
196.88
155.10
100.80
37.59
-26.37
-79.97
-112.84
-119.44
-101.20
-65.63
-22.69
19.22
56.02
87.76
116.78
144.80
171.75
196.02
216.00
231.51
244.02
255.97
269.72
287.06
308.93
335.03
363.15
388.91
406.14
408.55
392.12
356.94
307.21
249.35
189.70
132.75
81.32
37.33
2.56
-21.85
-36.90
-46.77
-58.53
-80.01
-116.72
-169.33
-233.19
-299.76
-359.00
-402.19
-423.67
-421.72
-398.22
-357.82
-306.36
-249.40
-190.99
-133.31
-77.08
-22.29
30.92
82.06
130.54
176.40
220.40
263.42
305.14
342.96
372.07
386.61
381.99
356.80
313.32
256.66
193.15
129.22
71.08
25.26
-1.87
-5.23
16.83
60.87
118.27
176.85
224.48
253.14
262.09
258.34
253.77
259.48
280.42
312.82
345.84
366.96
368.08
349.09
317.07
282.04
251.69
228.63
211.29
196.92
184.48
175.22
171.20
172.78
177.62
181.06
178.01
165.26
142.76
113.55
82.27
53.21
28.64
8.10
-10.62
-30.22
-52.48
-77.43
-103.44
-127.98
-148.34
-162.95
-171.58
-174.62
-172.65
-165.87
-154.17
-137.40
-115.88
-90.65
-63.91
-39.39
-20.73
-10.49
-9.52
-16.91
-30.28
-46.40
-61.59
-73.15
-81.84
-88.90
-95.40
-101.54
-106.96
-111.26
-114.31
-115.71
-116.93
-125.21
-146.99
-186.42
-243.98
-317.03
-401.27
-491.74
-582.17
-668.90
-757.01
-849.96
-947.86
-1046.80
-1140.72
-1225.02
-1297.89
-1357.28
-1404.46
-1448.96
-1494.19
-1536.78
-1568.73
-1582.35
-1575.55
-1552.45
-1517.67
-1414.91
-1215.02
-916.74
-552.32
-173.02
174.52
462.62
664.05
797.96
884.76
929.60
935.66
908.14
856.27
794.75
735.01
684.40
649.03
627.24
607.94
583.12
550.77
514.57
481.25
455.88
440.11
434.57
434.76
431.64
420.11
401.63
382.22
369.70
369.94
385.81
418.16
462.25
507.90
544.27
564.82
569.16
563.85
560.07
569.14
597.53
641.26
686.77
716.88
720.42
695.53
649.34
593.97
541.53
500.91
476.00
466.94
454.85
424.85
367.04
279.30
167.34
41.38
-87.82
-211.66
-324.34
-420.45
-498.48
-555.65
-588.61
-595.70
-578.31
-540.71
-488.51
-424.89
-354.91
-282.17
-209.37
-139.03
-73.75
-16.18
31.22
66.46
88.34
96.36
92.68
81.46
67.58
55.40
47.93
46.24
49.30
54.35
57.56
56.33
50.31
41.14
31.82
25.45
23.85
27.00
33.30
40.39
46.49
50.16
49.48
41.60
24.00
-3.23
-35.75
-65.45
-83.78
-86.46
-76.37
-62.68
-55.90
-61.59
-76.89
-92.06
-96.17
-83.55
-56.88
-25.50
-0.02
12.94
13.17
5.41
-3.57
-8.27
-5.78
4.24
20.46
40.63
60.81
76.43
83.19
78.26
61.65
36.52
8.39
-16.68
-34.41
-43.90
-47.41
-49.13
-53.33
-62.18
-74.66
-87.03
-94.51
-93.23
-81.88
-61.98
-37.33
-13.40
3.86
10.08
4.53
-8.67
-21.53
-25.81
-17.33
1.19
21.21
32.79
30.11
14.54
-6.47
-23.13
-29.52
-26.20
-18.07
-10.12
-3.99
2.29
11.89
26.26
43.29
58.32
66.64
65.90
57.01
43.56
29.95
19.40
12.96
9.47
5.89
-0.35
-10.30
-23.09
-36.61
-48.45
-56.93
-61.67
-63.44
-64.30
-65.73
-68.24
-71.40
-74.22
-75.60
-74.89
-72.04
-63.31
-50.38
-35.32
-19.15
-1.92
16.84
37.66
60.59
85.02
109.57
132.78
152.80
167.80
176.23
176.96
169.47
153.87
130.96
101.06
67.45
33.69
2.72
-23.50
-43.97
-58.49
-67.51
-71.56
-71.66
-68.98
-64.76
-59.90
-55.05
-50.55
-46.69
-43.70
-41.35
-39.75
-38.93
-38.98
-39.83
-41.35
-43.15
-44.79
-47.79
-50.29
-51.30
-50.05
-46.05
-38.94
-28.97
-16.52
-2.52
11.85
25.78
38.30
49.02
58.06
66.01
73.18
80.01
85.98
90.37
92.80
93.01
91.44
89.09
87.40
87.02
88.38
89.85
89.25
84.88
75.57
60.87
40.35
18.36
-2.94
-21.83
-39.45
-57.31
-76.38
-97.06
-119.24
-142.54
-165.86
-188.00
-206.80
-223.41
-239.60
-256.93
-276.34
-298.25
-323.73
-354.31
-391.61
-415.77
-412.21
-374.95
-309.54
-228.79
-146.53
-74.69
-21.31
10.70
24.59
24.40
15.50
2.88
-11.73
-25.46
-36.15
-42.07
-41.89
-34.84
-24.19
-14.32
-9.04
-10.25
-17.30
-28.02
-39.25
-49.19
-56.00
-60.17
-62.92
-65.38
-67.95
-70.06
-71.19
-70.93
-69.19
-65.86
-62.08
-59.20
-58.29
-59.78
-63.23
-67.96
-73.09
-77.62
-80.10
-79.50
-75.11
-66.79
-55.10
-41.26
-26.94
-13.91
-3.49
4.05
9.42
13.94
18.85
24.68
30.81
36.16
39.35
39.41
36.33
31.13
25.70
23.06
27.10
41.78
70.22
112.49
164.20
216.87
260.41
287.01
293.78
283.12
260.69
232.40
202.30
172.25
143.03
115.77
92.36
74.47
62.09
53.29
45.43
36.90
28.40
22.80
23.59
33.47
52.70
78.94
108.00
135.42
156.96
170.05
174.28
170.86
162.58
153.27
147.51
149.78
162.88
186.08
213.97
237.20
245.20
229.78
188.44
125.29
48.52
-33.64
-115.74
-195.45
-271.60
-342.31
-403.90
-452.37
-485.37
-503.33
-508.72
-503.96
-490.28
-467.72
-437.12
-400.54
-361.79
-324.74
-291.56
-261.62
-231.69
-197.68
-155.89
-104.49
-43.99
22.93
92.11
159.62
223.47
284.13
342.98
400.48
454.13
498.17
525.43
530.14
510.79
470.94
418.70
364.21
316.75
281.52
258.18
241.22
221.45
189.93
141.06
75.23
-1.18
-78.04
-144.86
-193.42
-218.66
-219.17
-197.18
-158.93
-113.93
-73.17
-45.56
-34.47
-36.38
-42.48
-43.12
-32.02
-8.85
21.94
54.08
82.92
107.47
130.05
154.67
184.70
220.90
259.52
292.97
312.20
310.75
288.94
254.15
217.49
188.27
170.09
160.32
153.95
147.67
141.67
137.69
134.41
125.63
102.58
60.38
3.23
-55.43
-99.32
-118.75
-115.94
-103.32
-94.64
-96.05
-102.52
-102.51
-87.64
-60.13
-32.47
-19.17
-27.19
-50.70
-74.68
-84.60
-74.94
-51.41
-25.78
-7.83
0.28
3.58
9.87
24.77
49.72
82.97
121.61
162.64
202.23
234.88
253.66
252.57
230.17
191.55
147.90
112.60
96.10
101.34
122.32
146.46
159.70
152.25
122.23
75.92
24.04
-23.49
-61.45
-90.33
-114.38
-138.63
-166.21
-196.98
-227.80
-253.00
-265.92
-260.42
-232.54
-182.54
-116.35
-45.17
17.40
59.93
77.88
75.77
65.87
63.18
79.24
117.34
171.84
231.22
283.11
318.56
333.60
328.36
304.98
266.39
216.38
160.29
104.80
56.24
18.54
-8.24
-27.74
-45.09
-64.11
-84.97
-103.50
-112.32
-103.38
-70.76
-13.55
62.48
145.43
220.17
272.89
295.49
288.09
258.16
216.90
174.55
136.83
104.32
74.32
44.24
14.17
-13.03
-33.18
-43.83
-46.30
-45.48
-47.96
-59.40
-82.56
-116.24
-155.75
-194.09
-223.40
-236.58
-229.56
-203.21
-164.25
-123.43
-91.84
-76.45
-77.22
-87.31
-96.61
-96.98
-85.41
-64.47
-39.92
-17.11
0.93
13.15
18.73
15.98
3.09
-19.47
-47.03
-71.48
-84.55
-82.43
-68.46
-52.12
-44.28
-51.54
-72.73
-100.14
-124.64
-140.96
-149.79
-155.49
-161.58
-166.80
-166.04
-154.54
-132.70
-108.06
-92.55
-96.86
-124.71
-170.85
-223.53
-270.73
-305.83
-329.73
-348.44
-368.09
-390.93
-413.69
-429.86
-432.73
-419.17
-390.82
-352.78
-310.39
-266.42
-220.86
-172.57
-121.60
-69.24
-19.06
23.82
54.06
67.73
64.16
46.62
22.08
-0.38
-10.07
-0.28
29.03
71.45
117.77
160.73
197.52
229.37
259.32
292.26
330.53
372.97
415.98
455.64
488.95
513.08
524.80
506.07
447.68
357.20
258.44
177.07
127.60
111.12
120.25
144.88
176.59
213.60
255.67
300.95
344.47
380.41
404.93
417.04
417.97
410.08
397.38
380.00
357.71
328.61
290.51
242.89
187.36
126.76
64.33
4.00
-51.62
-101.33
-146.10
-187.51
-226.35
-261.91
-292.61
-316.60
-331.79
-336.89
-331.40
-316.59
-294.64
-267.97
-238.73
-208.83
-179.94
-153.14
-129.10
-108.04
-90.53
-77.16
-68.51
-64.88
-66.24
-71.81
-79.91
-88.29
-94.34
-96.22
-93.15
-85.77
-75.74
-65.15
-55.76
-48.29
-42.86
-39.21
-37.80
-40.02
-48.18
-64.53
-90.37
-125.76
-169.28
-218.77
-271.40
-323.49
-369.85
-404.06
-419.47
-411.37
-379.11
-326.42
-259.97
-186.21
-109.09
-30.02
49.96
127.23
194.56
242.86
265.37
261.32
237.15
203.85
172.06
147.95
131.65
119.10
105.47
88.11
67.21
44.58
21.69
-1.84
-27.77
-57.93
-92.77
-131.06
-170.52
-209.23
-245.87
-279.08
-306.73
-325.52
-332.31
-325.93
-308.67
-286.12
-265.78
-254.44
-255.91
-270.55
-296.17
-329.31
-366.47
-404.20
-438.33
-463.73
-474.73
-467.13
-441.07
-402.33
-360.68
-326.27
-304.84
-294.92
-288.66
-276.23
-251.08
-213.42
-169.47
-127.75
-94.77
-72.66
-59.68
-52.63
-49.35
-49.53
-53.89
-62.42
-73.56
-84.55
-92.12
-93.57
-87.93
-75.98
-59.89
-42.42
-25.64
-10.46
3.15
15.77
28.09
40.39
52.62
64.51
75.34
84.63
92.32
98.87
104.90
111.20
118.39
126.83
136.56
146.99
157.30
166.44
173.17
176.05
173.67
165.15
151.15
134.24
118.28
106.98
102.13
102.66
105.37
106.58
104.19
98.75
93.17
90.96
94.34
102.98
114.43
125.86
135.15
141.72
146.60
152.09
160.81
174.98
195.75
222.54
252.78
281.75
303.42
312.52
307.02
289.73
268.14
251.84
248.69
261.28
285.36
310.98
326.00
320.37
288.89
232.41
157.23
73.75
-6.02
-71.56
-116.65
-141.22
-150.39
-151.19
-148.98
-145.02
-137.15
-122.57
-100.60
-73.27
-43.52
-12.64
20.30
55.88
90.93
116.96
123.64
105.19
66.01
19.94
-16.28
-31.95
-27.54
-12.69
0.72
6.06
3.74
-2.13
-9.29
-19.96
-38.27
-64.63
-91.92
-107.57
-100.80
-70.15
-25.98
14.49
36.28
34.79
17.53
-0.98
-7.23
5.18
34.29
72.93
113.01
148.21
174.42
188.72
188.62
172.19
139.23
92.38
37.54
-17.47
-64.43
-96.17
-108.06
-99.11
-72.44
-34.52
6.76
44.73
75.25
96.50
107.50
107.06
94.09
70.11
40.99
16.43
6.90
19.46
54.86
107.57
167.96
225.36
270.93
299.42
309.76
305.47
293.45
281.81
276.45
278.06
281.46
278.16
260.92
227.81
183.32
136.39
96.59
70.80
61.34
66.03
79.69
95.82
108.20
112.48
106.94
92.82
73.45
52.74
33.80
18.26
5.97
-4.36
-13.90
-22.50
-27.98
-26.55
-15.01
7.29
36.55
65.26
84.93
89.89
79.41
57.52
29.68
-0.26
-31.34
-64.44
-100.47
-138.66
-176.18
-209.37
-234.37
-247.23
-243.81
-220.48
-176.34
-115.99
-49.58
10.50
55.29
83.97
103.90
125.63
155.64
191.51
222.66
236.47
225.72
192.83
147.92
102.91
65.76
38.65
20.54
11.08
12.55
27.79
56.16
91.49
123.09
140.05
135.93
111.27
72.31
27.69
-15.25
-52.66
-83.86
-110.40
-133.86
-154.72
-171.60
-181.78
-182.88
-175.01
-162.44
-152.25
-150.93
-160.76
-178.52
-197.69
-212.41
-220.13
-221.89
-219.95
-215.34
-207.42
-195.65
-181.03
-166.08
-152.34
-137.88
-117.95
-89.00
-53.17
-19.51
-0.87
-6.34
-34.78
-73.55
-104.34
-112.46
-94.52
-59.51
-23.34
-0.59
2.16
-12.49
-36.99
-64.85
-93.76
-124.18
-155.48
-182.85
-198.15
-194.61
-171.96
-138.12
-105.59
-85.04
-79.69
-84.74
-91.24
-91.18
-81.16
-62.01
-36.35
-5.74
30.12
72.28
120.84
173.86
227.63
277.14
316.71
340.76
345.52
330.83
301.42
266.33
235.96
217.71
212.92
217.00
222.06
221.14
211.13
192.76
168.57
140.32
107.62
69.25
25.49
-19.57
-57.70
-79.24
-78.14
-56.01
-22.89
6.52
19.60
11.47
-13.31
-44.14
-70.81
-88.86
-100.92
-114.14
-135.51
-168.27
-211.03
-259.21
-306.45
-345.54
-369.16
-371.35
-350.29
-310.42
-261.87
-217.34
-187.38
-177.13
-186.08
-209.31
-240.32
-273.09
-303.00
-326.78
-342.38
-348.93
-346.95
-337.96
-323.23
-302.93
-276.15
-242.21
-202.60
-162.59
-130.43
-114.56
-119.75
-143.95
-178.09
-209.31
-226.07
-222.53
-200.68
-168.15
-133.86
-103.63
-78.77
-57.57
-38.37
-21.37
-8.61
-2.15
-2.19
-6.41
-11.09
-13.23
-12.09
-9.57
-9.33
-15.05
-28.86
-50.32
-76.49
-103.27
-127.03
-145.77
-159.36
-169.00
-176.43
-182.95
-188.75
-192.94
-194.18
-191.37
-184.35
-173.79
-161.01
-147.40
-133.94
-120.95
-108.13
-94.91
-80.71
-65.18
-48.34
-30.53
-12.16
6.35
24.66
42.48
59.46
75.24
89.51
101.95
112.24
120.21
125.88
129.44
131.25
131.83
131.84
132.05
133.19
135.71
139.71
145.07
151.40
158.14
164.75
170.77
175.89
179.76
181.98
182.00
179.23
173.35
164.42
153.23
141.27
130.51
122.70
118.96
119.19
122.08
125.51
127.44
126.57
122.83
117.17
110.90
104.71
98.01
88.93
75.14
55.28
30.04
2.43
-22.86
-41.16
-49.68
-48.66
-41.10
-31.29
-22.60
-15.56
-7.56
6.07
29.98
66.96
116.65
175.46
236.82
292.19
332.44
349.71
339.88
305.18
255.40
205.88
172.39
164.64
181.59
211.64
237.92
246.63
233.82
206.58
178.01
159.30
153.41
154.18
150.73
134.01
101.99
60.42
19.43
-11.26
-25.76
-22.78
-4.21
26.48
65.94
111.76
161.88
214.15
266.12
315.00
357.76
391.60
415.09
428.98
436.19
440.35
443.34
443.61
436.13
414.44
374.00
315.47
244.77
171.07
102.96
45.45
-1.16
-40.24
-76.16
-111.85
-147.72
-183.10
-217.76
-252.15
-285.85
-316.06
-337.07
-341.53
-323.58
-280.47
-214.73
-133.36
-45.22
41.52
120.49
186.43
234.50
260.54
264.83
250.72
224.01
191.65
160.58
136.55
122.87
119.79
124.00
134.51
148.52
162.34
173.39
182.35
193.06
209.56
232.72
259.24
291.94
333.41
384.72
443.35
502.07
550.79
579.68
583.78
566.43
548.75
551.76
584.72
639.95
697.77
738.08
750.15
735.79
645.35
460.19
194.61
-107.38
-395.66
-636.85
-818.40
-940.88
-1011.74
-1042.31
-1035.99
-997.95
-937.41
-866.02
-794.34
-728.48
-669.41
-615.65
-565.55
-511.56
-448.18
-377.38
-306.67
-244.80
-198.16
-169.14
-157.22
-160.46
-174.12
-190.11
-203.88
-214.89
-223.83
-231.40
-237.25
-240.63
-240.90
-235.82
-224.24
-207.69
-189.75
-173.25
-160.73
-153.36
-151.46
-154.64
-161.46
-170.65
-182.02
-198.53
-218.23
-238.91
-257.36
-269.83
-272.65
-263.13
-240.23
-201.67
-153.17
-99.48
-45.38
5.65
51.13
89.31
119.24
140.10
150.33
147.92
133.14
106.85
71.05
28.66
-15.75
-56.21
-85.72
-98.09
-90.77
-65.25
-28.27
10.82
42.86
62.59
69.28
65.75
56.09
43.40
29.62
15.41
1.94
-8.89
-14.05
-11.04
0.75
19.89
43.62
69.53
93.17
112.53
127.07
138.41
148.43
158.39
168.61
178.88
189.32
200.53
213.78
222.20
221.09
208.02
183.75
151.11
113.15
72.38
30.88
-9.41
-46.93
-79.34
-105.25
-124.43
-138.08
-148.27
-157.11
-165.75
-174.41
-182.66
-189.23
-192.74
-192.27
-187.93
-180.34
-170.72
-159.74
-147.96
-136.04
-124.05
-112.52
-101.99
-92.95
-85.30
-78.29
-69.65
-56.56
-36.62
-7.98
27.47
66.60
105.16
138.91
164.69
181.89
191.50
195.56
196.44
196.03
196.21
198.86
206.08
214.19
221.41
226.48
228.70
228.40
226.38
223.61
219.65
211.60
194.60
164.32
118.49
59.22
-6.25
-67.96
-116.67
-147.47
-161.35
-163.37
-158.99
-152.05
-143.84
-134.04
-122.52
-110.35
-99.63
-92.29
-88.84
-87.77
-86.77
-83.63
-77.35
-68.58
-59.11
-50.94
-45.48
-42.78
-41.50
-39.62
-35.15
-26.73
-13.98
2.43
21.43
41.68
62.14
81.83
99.92
114.67
124.16
126.62
120.41
104.70
79.55
46.61
8.55
-31.51
-70.57
-105.63
-134.17
-154.76
-167.08
-172.15
-171.59
-167.27
-161.35
-155.47
-150.12
-144.41
-136.78
-123.29
-103.70
-78.14
-47.26
-12.78
22.97
57.73
89.97
118.65
142.29
159.01
167.02
164.81
151.59
127.74
93.52
52.50
8.04
-35.81
-74.05
-100.81
-111.10
-102.85
-78.79
-45.69
-12.36
13.07
26.37
27.81
20.59
8.26
-7.10
-25.48
-47.17
-71.61
-97.10
-121.23
-140.79
-153.67
-159.05
-156.85
-147.50
-131.13
-107.70
-77.19
-41.60
-3.18
35.27
70.76
101.11
125.12
142.83
156.49
166.04
171.61
173.16
170.40
162.89
150.97
135.75
119.04
102.74
87.67
73.97
61.26
49.07
37.31
27.00
19.98
18.28
23.25
34.28
49.07
64.36
76.77
83.94
85.34
82.07
76.35
71.15
69.26
72.74
81.97
95.06
108.14
116.32
115.78
105.74
90.39
77.41
74.99
87.72
114.13
146.85
175.97
193.37
194.27
180.09
157.01
132.70
112.65
98.38
87.87
77.86
65.69
50.51
33.27
15.56
-0.93
-14.24
-21.96
-21.56
-11.55
7.20
30.70
52.76
66.85
68.43
56.66
34.33
6.86
-20.03
-42.15
-57.91
-67.79
-73.80
-78.35
-83.44
-89.83
-96.10
-98.75
-93.66
-78.34
-53.84
-25.64
-1.90
9.85
6.00
-11.42
-36.40
-62.53
-86.08
-107.41
-129.54
-155.23
-184.77
-215.88
-245.12
-269.84
-288.73
-301.26
-307.06
-305.61
-297.40
-284.68
-271.38
-260.90
-253.70
-246.33
-233.39
-211.69
-183.52
-157.27
-143.88
-151.85
-183.12
-232.42
-289.85
-344.63
-388.12
-414.45
-420.06
-403.32
-364.38
-306.03
-233.52
-153.72
-73.41
1.70
68.00
124.02
170.66
210.76
248.23
286.77
327.68
368.91
405.83
433.75
451.01
460.19
466.22
472.41
479.01
483.21
481.79
473.72
460.57
444.59
425.36
398.49
355.46
290.57
205.44
109.19
14.80
-66.54
-128.78
-171.75
-198.61
-216.44
-229.01
-235.71
-233.90
-222.58
-204.11
-183.27
-165.77
-156.45
-163.95
-192.18
-238.71
-296.63
-358.50
-418.56
-472.38
-515.85
-544.91
-563.54
-573.80
-574.11
-561.48
-535.74
-501.54
-466.60
-438.74
-376.78
-266.33
-123.33
18.22
132.58
213.12
265.41
298.34
319.91
335.78
341.70
335.22
318.93
299.13
281.29
267.95
259.05
253.71
251.16
244.76
230.89
210.86
189.18
169.65
154.09
142.40
133.48
126.49
116.46
100.53
79.32
55.99
33.22
12.93
-4.07
-19.98
-33.66
-46.90
-60.76
-74.92
-87.87
-98.24
-105.11
-108.21
-107.91
-104.30
-98.29
-89.98
-78.28
-59.03
-33.10
-2.08
31.58
64.65
94.47
118.74
136.65
149.35
158.98
168.24
178.90
191.36
203.82
213.70
217.60
212.40
195.73
166.74
126.97
80.59
37.34
6.44
-6.65
-2.73
10.90
23.42
25.36
12.71
-10.69
-35.67
-53.24
-58.97
-54.24
-44.03
-33.71
-27.29
-27.65
-37.50
-59.69
-95.49
-141.61
-188.57
-224.19
-235.78
-217.86
-174.90
-119.50
-66.40
-26.71
-4.32
4.02
5.32
6.26
11.09
21.82
39.61
66.09
102.68
147.96
196.77
240.73
271.09
282.69
276.06
256.22
229.02
197.26
158.26
107.49
43.31
-30.11
-102.63
-162.01
-198.48
-208.17
-188.46
-146.60
-92.64
-33.86
23.89
79.18
128.38
166.24
187.59
188.72
167.98
126.68
70.18
5.48
-60.32
-123.08
-180.50
-231.58
-276.64
-311.68
-334.86
-344.78
-341.36
-325.20
-298.19
-262.07
-218.83
-172.23
-125.48
-90.00
-77.84
-96.38
-141.52
-204.89
-275.35
-341.23
-391.97
-419.54
-419.85
-390.35
-331.02
-245.06
-140.12
-26.68
83.37
178.47
249.60
290.71
301.42
285.70
250.00
200.99
144.97
87.43
32.71
-15.91
-56.56
-86.35
-103.12
-106.39
-97.87
-80.80
-58.88
-35.46
-13.10
6.63
26.31
49.16
77.41
110.93
147.43
183.63
216.43
243.50
263.55
280.99
301.06
327.66
361.67
400.89
441.41
479.39
511.88
537.00
559.75
585.57
617.87
656.57
698.91
741.91
784.79
828.15
837.81
789.44
673.55
502.64
305.29
112.21
-54.18
-181.99
-269.66
-323.75
-349.75
-354.07
-342.27
-319.03
-286.82
-250.67
-215.26
-185.03
-163.89
-149.81
-138.99
-127.58
-113.62
-97.89
-83.67
-74.81
-75.45
-89.26
-114.91
-147.75
-181.40
-210.08
-230.22
-241.44
-245.98
-248.44
-254.43
-267.64
-290.52
-324.14
-367.65
-417.95
-469.09
-512.09
-537.05
-537.05
-510.83
-465.27
-413.62
-370.00
-343.56
-334.80
-335.91
-335.45
-324.65
-300.79
-267.21
-230.16
-194.44
-161.27
-128.59
-93.42
-54.25
-12.37
29.45
68.85
105.02
138.70
170.37
199.59
224.84
243.92
255.49
260.39
261.66
263.81
270.94
284.58
303.11
322.27
337.06
343.24
338.62
323.24
299.03
268.95
235.81
201.44
167.00
133.31
101.25
71.79
45.77
24.05
7.79
-1.76
-4.46
-2.27
1.15
2.29
-0.44
-6.21
-12.53
-16.65
-16.82
-13.30
-8.27
-4.55
-4.37
-8.36
-15.84
-24.86
-32.30
-34.69
-29.84
-19.18
-8.10
-3.92
-11.03
-27.72
-46.14
-57.01
-55.98
-47.06
-40.07
-43.77
-59.71
-80.71
-95.35
-95.21
-80.23
-59.39
-45.11
-45.55
-59.69
-78.03
-87.59
-79.40
-52.96
-16.58
16.82
36.26
37.82
26.21
12.16
7.72
20.82
51.99
93.82
133.89
160.16
165.95
152.48
128.28
105.58
95.10
101.84
123.79
153.50
182.13
202.64
211.20
206.56
187.90
153.85
104.33
43.90
-16.91
-63.78
-84.57
-75.68
-45.01
-9.28
13.07
11.16
-12.64
-44.63
-67.66
-70.78
-54.16
-27.35
-2.06
15.10
25.51
35.16
48.55
65.17
80.23
89.27
93.19
99.44
118.57
157.29
213.53
276.14
329.84
361.50
365.04
341.94
298.61
242.29
178.04
108.30
34.84
-38.66
-106.59
-162.60
-201.69
-222.19
-226.07
-217.70
-201.98
-183.25
-164.39
-147.49
-133.65
-123.08
-115.72
-110.87
-107.67
-104.51
-99.54
-90.52
-75.25
-52.47
-21.88
15.78
59.21
106.28
155.12
203.78
250.49
293.29
329.68
356.90
372.29
373.81
359.18
327.44
278.91
215.25
139.64
55.16
-34.33
-124.25
-209.36
-286.38
-351.31
-399.48
-426.21
-426.90
-402.24
-355.67
-292.69
-220.35
-150.70
-94.06
-56.76
-40.91
-43.04
-63.34
-101.23
-153.68
-216.73
-291.75
-377.12
-466.38
-549.14
-611.56
-650.70
-667.11
-661.38
-636.33
-603.92
-574.44
-552.73
-538.29
-525.78
-521.67
-533.77
-565.83
-558.62
-476.44
-321.59
-131.22
6.93
87.48
119.12
109.17
83.13
51.30
11.24
-39.90
-99.41
-131.60
-106.98
-24.81
94.84
224.81
338.24
413.70
443.00
431.67
394.46
348.11
298.10
245.25
191.46
134.26
75.60
20.93
-22.17
-46.49
-47.66
-28.78
4.41
52.03
103.38
144.77
166.28
166.68
154.44
143.96
147.11
168.62
204.99
247.62
283.93
305.46
310.24
301.43
285.32
265.66
242.95
216.63
185.53
150.62
116.34
87.53
67.09
57.90
60.13
64.87
66.85
63.49
55.03
46.95
45.91
57.22
87.60
139.16
208.16
287.38
367.78
439.80
498.39
540.63
541.78
488.56
383.30
243.67
92.95
-40.34
-158.21
-266.45
-368.30
-464.22
-545.14
-601.64
-628.58
-625.49
-595.56
-536.27
-449.33
-344.38
-236.57
-135.59
-47.19
26.13
83.94
126.65
154.76
171.10
179.47
191.27
213.11
247.13
291.13
339.61
385.62
422.41
445.83
454.84
429.51
372.70
295.65
211.00
128.58
54.45
-8.89
-61.05
-102.70
-134.79
-155.25
-164.31
-164.19
-158.26
-149.78
-141.40
-134.94
-131.22
-130.27
-129.24
-127.01
-123.83
-120.97
-119.84
-121.74
-127.64
-137.90
-151.99
-167.30
-181.83
-193.88
-203.10
-208.19
-208.27
-203.05
-192.76
-178.22
-160.00
-139.54
-118.36
-98.09
-79.85
-64.35
-51.79
-41.87
-33.92
-26.97
-20.32
-12.94
-4.43
5.36
16.17
27.48
38.69
49.16
58.18
65.00
69.64
71.93
71.66
68.73
63.11
55.18
45.59
35.63
22.21
5.03
-15.37
-38.09
-61.91
-85.70
-108.46
-129.49
-148.61
-166.00
-181.56
-195.67
-208.99
-222.08
-235.39
-249.00
-262.58
-275.41
-286.38
-293.75
-295.97
-291.94
-281.02
-263.18
-239.20
-210.43
-178.75
-146.23
-114.74
-86.02
-61.59
-42.48
-29.22
-21.95
-20.43
-24.31
-32.92
-45.24
-60.09
-76.04
-91.39
-104.26
-112.79
-115.35
-110.66
-97.85
-76.44
-46.57
-8.97
35.10
83.84
134.90
185.43
232.38
272.96
305.18
328.05
341.88
348.14
349.18
347.49
345.23
343.63
343.12
343.26
343.33
342.54
340.53
337.44
334.03
331.63
331.38
333.78
337.90
341.46
341.16
333.84
317.49
291.72
257.77
217.58
173.21
126.55
79.44
33.80
-8.26
-44.70
-73.78
-94.11
-105.05
-106.71
-100.06
-87.00
-70.18
-52.22
-34.74
-18.00
-0.89
17.74
37.84
57.45
73.06
80.97
79.43
69.86
56.89
46.96
45.86
56.56
78.49
107.85
139.34
167.98
190.08
203.34
206.85
201.22
188.80
173.76
160.79
153.19
150.98
150.10
143.77
125.55
92.44
46.23
-7.31
-60.96
-108.54
-146.31
-172.90
-188.64
-194.52
-191.69
-181.53
-165.58
-145.72
-123.87
-101.98
-81.86
-64.88
-51.60
-41.53
-33.47
-26.09
-18.68
-11.33
-4.63
0.93
5.43
9.42
13.97
19.45
25.47
30.96
34.56
35.26
32.81
27.72
20.51
12.23
2.28
-11.60
-32.13
-60.40
-94.17
-127.80
-154.27
-169.21
-170.00
-159.42
-143.95
-129.99
-120.28
-112.49
-100.71
-79.35
-47.88
-6.02
42.52
92.67
140.99
186.86
231.88
277.67
323.63
365.17
404.33
444.65
490.74
546.66
613.47
688.97
768.73
847.60
887.87
865.19
768.84
606.09
399.17
175.28
-42.77
-240.35
-400.49
-530.17
-632.32
-707.69
-755.43
-774.71
-766.26
-732.58
-676.35
-600.97
-512.01
-409.23
-293.72
-169.73
-44.95
69.93
163.06
225.54
251.87
239.63
194.06
121.91
29.01
-79.53
-197.68
-317.80
-427.81
-514.37
-566.15
-572.00
-524.63
-422.08
-268.07
-72.31
148.14
373.62
577.02
728.76
808.02
808.51
738.21
614.29
466.83
309.01
149.05
-4.80
-142.86
-256.10
-337.93
-388.49
-414.73
-426.39
-431.40
-429.65
-415.59
-382.60
-327.70
-253.60
-167.34
-76.35
14.13
99.56
174.69
228.82
246.19
211.51
117.38
-31.18
-216.47
-414.17
-595.01
-731.58
-806.12
-814.36
-764.62
-673.04
-557.56
-432.98
-310.29
-197.83
-101.83
-26.96
24.14
52.30
61.94
59.94
53.95
50.44
52.82
61.46
74.64
89.77
105.45
121.98
140.59
162.08
186.58
212.13
235.91
256.21
272.41
284.95
294.14
299.22
298.49
289.73
271.83
245.30
213.57
180.04
147.41
118.07
93.50
74.37
59.08
43.67
21.94
-9.53
-52.84
-106.19
-163.98
-219.27
-264.28
-293.32
-303.23
-294.05
-263.97
-215.36
-152.78
-81.22
-4.82
76.25
165.52
267.87
383.81
512.51
644.08
755.17
821.54
826.49
769.25
663.94
543.29
405.79
261.67
106.75
-62.49
-242.57
-424.07
-590.92
-720.67
-796.00
-812.35
-773.49
-695.38
-596.50
-491.14
-387.40
-288.43
-196.31
-115.34
-52.29
-9.18
13.60
20.15
18.06
15.12
17.18
26.28
39.88
52.30
60.22
61.33
56.51
48.95
42.34
39.49
41.21
45.86
50.30
52.55
51.34
47.07
41.42
36.17
32.66
31.33
31.47
31.76
31.31
29.58
26.67
23.16
19.63
16.48
13.91
11.73
9.69
7.54
5.18
2.59
-0.03
-2.60
-5.02
-7.21
-9.12
-10.69
-11.90
-12.74
-13.50
-14.20
-14.96
-15.80
-16.53
-16.69
-15.52
-11.97
-4.96
6.17
21.85
41.81
65.14
90.37
115.81
139.28
158.65
171.98
177.55
174.17
161.25
139.17
108.90
73.79
37.28
2.84
-26.73
-49.92
-66.61
-77.96
-85.95
-91.75
-96.12
-99.21
-100.54
-99.79
-97.07
-93.12
-89.06
-86.01
-84.45
-84.71
-86.94
-90.55
-93.81
-93.75
-86.66
-69.71
-42.72
-8.85
26.05
55.54
75.41
85.07
86.69
83.79
79.46
74.76
69.46
62.88
54.87
46.11
37.23
27.55
15.24
-1.58
-24.15
-51.71
-81.55
-109.34
-130.35
-141.25
-140.94
-130.38
-111.75
-87.71
-60.14
-29.89
1.34
32.48
62.44
90.20
114.91
135.08
147.87
150.00
138.99
113.98
78.47
39.17
3.94
-20.86
-33.09
-35.22
-31.72
-27.00
-23.36
-20.16
-16.32
-11.31
-5.48
0.07
4.54
8.26
12.10
16.84
23.45
31.07
37.35
39.92
37.04
28.42
15.54
1.22
-11.45
-18.94
-19.11
-11.85
1.98
20.95
43.01
65.77
86.33
101.51
108.45
104.38
87.78
58.41
18.12
-28.82
-76.94
-120.40
-154.47
-176.27
-185.32
-182.78
-170.79
-152.32
-129.64
-104.09
-76.73
-48.51
-20.60
5.64
28.88
48.25
62.50
70.46
71.57
66.31
56.31
44.25
34.34
28.75
26.65
23.88
15.80
-0.65
-24.22
-50.11
-72.06
-84.58
-85.85
-77.07
-61.10
-40.40
-16.66
9.63
37.97
66.84
94.12
116.90
132.44
139.36
138.22
130.86
120.08
108.51
97.54
87.51
77.68
67.10
55.26
42.90
31.69
23.69
21.00
24.89
36.03
53.92
76.48
99.61
117.64
124.61
116.39
93.16
58.86
18.63
-20.59
-53.25
-77.35
-95.19
-111.89
-132.60
-158.96
-189.75
-222.07
-253.03
-279.90
-299.43
-307.99
-301.74
-277.09
-229.65
-157.49
-63.03
45.70
157.00
257.90
336.75
385.58
391.75
351.80
276.03
183.86
93.25
17.24
-34.98
-57.95
-51.50
-23.23
13.67
42.96
51.64
34.05
-5.04
-53.45
-98.61
-133.14
-156.40
-170.75
-182.77
-190.81
-192.22
-184.80
-168.69
-147.19
-125.36
-106.97
-91.87
-76.66
-56.84
-31.40
-3.42
21.57
38.25
43.99
39.95
29.58
15.51
-2.65
-27.65
-62.52
-105.95
-150.27
-183.14
-192.69
-172.95
-126.37
-62.12
7.48
71.76
123.93
159.78
175.60
167.48
132.81
72.94
-5.12
-90.77
-172.78
-242.71
-296.28
-332.26
-349.96
-348.03
-324.87
-280.34
-217.65
-143.21
-64.89
10.13
77.01
133.88
181.59
222.18
257.88
290.28
319.93
346.41
368.80
386.57
400.15
410.31
417.10
419.64
416.77
409.03
399.45
392.60
391.79
396.45
401.51
399.58
385.09
357.18
319.92
279.48
240.28
202.77
163.98
120.31
70.88
19.53
-26.05
-57.47
-69.07
-60.94
-39.80
-17.30
-6.13
-15.24
-45.91
-91.07
-137.52
-171.00
-181.99
-169.20
-140.14
-107.59
-84.82
-80.49
-96.83
-130.10
-173.50
-220.62
-267.30
-311.69
-351.97
-385.79
-409.77
-421.68
-422.27
-416.20
-411.36
-416.23
-436.50
-471.78
-515.52
-556.32
-582.72
-587.24
-569.32
-535.13
-494.15
-454.98
-421.69
-393.21
-365.10
-333.00
-294.98
-252.11
-207.50
-164.16
-123.83
-86.80
-52.66
-20.91
8.40
34.60
57.07
75.33
89.60
100.39
108.43
114.26
118.50
121.76
124.83
128.82
134.59
142.65
152.75
163.79
174.13
182.27
187.06
188.26
186.81
184.59
183.88
185.92
189.65
191.16
184.78
165.01
128.99
77.86
16.35
-48.35
-108.77
-157.98
-190.38
-202.08
-191.73
-161.30
-116.16
-64.01
-12.34
33.22
69.63
95.20
108.25
107.07
92.15
68.24
44.64
32.82
41.64
73.59
124.08
183.92
243.77
298.10
345.74
388.05
426.08
458.65
483.10
497.47
502.37
501.42
500.33
504.90
518.71
541.21
566.96
587.00
591.65
574.09
533.21
474.24
406.59
340.37
281.89
231.93
187.00
142.84
97.51
52.49
11.23
-23.81
-52.32
-77.95
-106.32
-141.94
-185.47
-233.83
-281.92
-324.50
-357.65
-376.43
-377.30
-358.34
-319.86
-264.95
-199.40
-131.13
-66.53
-8.10
49.16
110.34
176.15
241.42
296.90
334.13
349.41
348.05
341.68
345.62
365.34
392.81
410.49
400.64
354.43
274.85
176.81
54.68
-80.04
-206.89
-306.11
-369.04
-398.71
-398.70
-376.28
-334.68
-276.02
-201.66
-117.70
-39.23
21.53
58.51
72.50
67.50
39.08
-11.78
-76.51
-144.99
-210.70
-269.95
-320.31
-358.64
-382.95
-391.90
-385.70
-366.37
-339.10
-311.33
-288.93
-275.11
-269.48
-269.70
-270.67
-265.44
-248.03
-216.86
-175.71
-131.85
-93.27
-65.29
-48.84
-40.84
-34.19
-23.39
-6.92
13.18
33.75
52.48
69.04
84.14
98.37
111.04
119.42
120.00
110.21
90.18
63.04
33.80
7.60
-11.26
-20.16
-18.79
-9.39
3.75
14.84
18.05
9.49
-12.05
-42.42
-72.75
-93.27
-98.28
-87.93
-67.35
-43.74
-22.21
-4.66
9.78
22.74
35.10
45.82
54.05
60.38
66.78
76.62
92.87
116.77
146.85
181.27
214.27
239.99
254.35
255.25
243.09
219.62
187.11
144.53
95.31
41.19
-16.94
-77.95
-140.45
-201.55
-258.01
-310.01
-355.49
-391.91
-418.20
-433.46
-436.71
-427.67
-406.19
-373.43
-325.43
-266.58
-199.95
-127.65
-52.12
22.22
88.29
138.96
169.26
178.83
171.94
156.50
140.04
127.03
118.43
112.70
109.06
107.47
109.12
115.02
125.32
139.04
154.08
169.63
182.02
189.39
190.03
183.14
167.52
142.20
107.01
63.03
13.09
-39.12
-87.85
-127.53
-152.45
-159.41
-147.77
-118.65
-75.98
-24.94
28.44
81.21
129.76
172.30
207.24
232.83
248.58
254.31
250.11
235.95
213.07
177.42
134.55
88.94
43.18
-0.95
-42.84
-81.94
-120.54
-158.13
-193.10
-221.71
-240.64
-247.24
-239.78
-217.93
-179.90
-130.19
-74.44
-20.22
24.50
51.88
57.42
42.42
13.84
-18.64
-45.92
-62.21
-67.11
-63.65
-56.58
-49.40
-43.30
-37.90
-32.58
-27.31
-21.93
-16.12
-9.01
0.24
11.87
25.34
38.74
49.70
56.28
57.31
53.29
46.35
39.44
34.93
33.95
35.16
35.54
31.22
19.74
1.24
-20.99
-41.52
-54.99
-57.85
-50.20
-35.32
-17.96
-2.07
10.43
19.59
26.52
31.85
35.38
36.41
34.24
29.24
22.56
15.66
9.02
2.34
-5.43
-14.93
-25.46
-35.52
-43.05
-47.25
-48.72
-49.74
-53.00
-59.80
-70.00
-81.64
-91.75
-97.44
-97.55
-92.27
-83.00
-70.99
-56.92
-40.80
-22.53
-2.29
19.54
42.35
65.57
88.22
108.29
121.89
123.84
110.29
81.14
41.52
0.27
-34.02
-56.40
-67.09
-70.32
-71.45
-72.65
-72.04
-65.29
-49.53
-26.30
-1.72
17.42
25.79
21.18
5.48
-17.02
-41.83
-66.03
-88.46
-108.58
-122.51
-126.16
-118.15
-100.58
-78.13
-55.72
-36.63
-21.73
-10.05
3.63
21.95
42.72
61.18
74.26
83.64
94.84
113.81
143.77
188.64
247.01
311.95
375.13
431.17
479.67
522.35
560.30
559.36
499.74
388.40
253.78
124.60
16.61
-65.80
-125.73
-169.36
-203.61
-229.42
-245.96
-255.88
-259.53
-257.36
-250.08
-241.00
-234.15
-232.87
-235.51
-237.58
-235.46
-225.02
-204.97
-171.22
-124.78
-67.75
-2.68
67.49
139.21
200.27
237.42
240.22
208.97
151.55
80.43
10.43
-57.29
-123.25
-188.73
-251.58
-313.73
-373.52
-431.52
-484.54
-512.01
-495.51
-425.81
-329.03
-216.43
-95.82
29.72
150.38
258.17
348.03
414.54
454.71
467.09
456.36
427.62
387.52
342.13
297.39
256.69
218.50
180.29
139.17
96.90
55.79
19.32
-9.36
-27.18
-32.55
-26.93
-12.51
5.27
21.42
30.93
31.80
25.27
14.94
4.00
-6.87
-16.60
-28.55
-47.31
-77.54
-121.86
-181.47
-256.24
-344.84
-443.22
-525.84
-563.34
-536.70
-451.08
-331.20
-205.86
-95.73
-9.54
55.10
114.21
179.51
252.73
328.14
397.49
454.04
494.79
521.54
514.04
472.43
404.46
320.52
228.89
135.99
48.84
-24.82
-78.71
-112.77
-125.90
-123.65
-114.50
-105.60
-99.69
-95.29
-89.22
-79.62
-66.67
-45.21
-16.13
16.73
48.15
72.42
84.15
79.20
56.16
17.65
-27.67
-71.28
-106.58
-130.63
-144.33
-151.19
-155.82
-161.88
-170.73
-180.16
-187.56
-190.74
-188.97
-183.02
-173.94
-161.83
-145.73
-124.49
-98.30
-70.68
-47.34
-33.74
-32.33
-40.99
-54.07
-65.47
-71.28
-71.04
-66.78
-60.32
-51.81
-40.28
-25.24
-7.82
9.09
22.85
32.48
39.25
45.83
54.42
65.16
76.27
85.33
90.59
92.11
90.95
88.15
83.82
77.02
66.35
51.14
32.48
12.96
-3.93
-15.32
-19.98
-18.61
-13.44
-7.40
-3.08
-1.65
-2.80
-4.80
-5.53
-3.58
1.02
6.45
9.97
9.31
3.83
-5.34
-16.00
-26.03
-34.02
-38.67
-38.24
-30.16
-12.11
15.99
50.48
84.77
111.85
127.07
130.15
124.44
114.67
104.39
94.61
84.49
73.20
61.24
50.05
41.05
34.20
27.90
20.00
9.35
-3.24
-14.94
-22.45
-23.77
-19.40
-12.24
-6.22
-4.27
-7.19
-13.48
-20.15
-24.53
-25.25
-22.57
-17.82
-12.57
-7.95
-4.50
-2.34
-1.31
-1.27
-2.00
-3.16
-4.25
-4.75
-4.01
-1.50
3.03
9.14
15.40
19.82
20.69
17.45
11.10
4.05
-1.04
-2.45
-0.25
3.68
6.85
7.47
5.06
0.70
-3.92
-7.37
-9.33
-10.46
-11.77
-13.89
-16.64
-19.28
-20.85
-20.92
-19.69
-17.90
-16.23
-14.98
-13.81
-11.82
-7.87
-1.34
7.65
18.10
28.53
37.70
44.78
49.64
52.62
54.08
54.25
53.18
51.14
48.66
46.47
45.01
44.04
42.55
39.22
33.10
24.11
13.38
2.65
-6.48
-13.26
-17.97
-21.32
-23.83
-25.60
-26.15
-25.14
-22.87
-20.08
-17.89
-17.27
-18.65
-22.10
-27.87
-36.35
-48.05
-63.00
-80.28
-97.93
-113.59
-125.02
-130.71
-130.24
-123.85
-112.45
-97.38
-80.15
-62.64
-46.76
-33.98
-24.74
-18.47
-13.61
-8.40
-1.27
8.87
21.57
35.61
49.74
63.46
77.10
91.40
107.15
124.86
144.81
165.45
184.67
201.08
214.95
227.93
241.97
258.39
277.53
298.55
317.31
328.58
328.14
314.57
288.76
252.50
207.67
156.20
99.91
37.51
-33.48
-114.79
-205.17
-300.87
-396.95
-487.91
-567.91
-615.99
-612.98
-553.64
-453.62
-339.87
-236.49
-157.14
-105.43
-76.72
-62.15
-54.35
-48.39
-41.82
-32.85
-21.56
-9.18
3.44
17.85
37.08
62.27
92.89
127.97
165.31
201.25
231.67
253.45
266.12
269.89
263.21
243.65
203.17
146.51
80.38
12.64
-54.46
-118.39
-177.85
-233.16
-283.62
-326.19
-354.54
-363.72
-352.51
-322.00
-273.62
-208.57
-127.27
-28.42
89.40
221.58
357.88
472.78
539.66
544.82
493.85
405.50
301.03
197.36
106.38
35.18
-13.77
-39.84
-45.21
-36.06
-20.84
-7.43
-0.82
-2.93
-13.82
-33.19
-58.40
-86.31
-112.79
-134.16
-147.88
-151.78
-144.57
-127.31
-104.85
-83.95
-71.87
-73.49
-87.31
-108.39
-127.23
-134.88
-127.81
-109.68
-87.32
-66.85
-50.88
-38.01
-25.96
-13.29
-0.32
11.03
18.55
22.31
24.54
28.61
38.13
54.72
77.92
105.35
134.17
160.20
180.02
191.26
192.81
184.62
167.39
142.77
111.63
77.93
44.43
13.02
-15.45
-40.86
-63.35
-82.78
-98.28
-108.36
-111.94
-109.48
-102.68
-94.36
-87.45
-84.31
-86.30
-93.28
-103.76
-114.93
-123.11
-123.68
-113.16
-91.73
-64.47
-40.31
-28.10
-33.11
-52.31
-76.65
-93.95
-93.68
-71.23
-29.25
23.70
76.60
119.32
145.20
153.10
146.49
131.33
113.51
97.04
83.41
72.29
62.79
54.88
49.21
46.33
45.90
46.59
46.87
45.43
41.78
36.28
29.35
20.91
10.30
-3.43
-21.19
-42.82
-67.04
-91.40
-112.51
-127.74
-136.36
-139.80
-140.50
-140.65
-140.18
-135.60
-122.79
-98.35
-62.43
-19.84
21.11
52.46
68.04
66.21
49.79
25.23
-0.18
-21.24
-36.12
-46.04
-53.01
-58.30
-60.81
-58.00
-46.97
-26.55
1.58
33.61
65.46
95.28
123.35
152.26
182.13
210.52
233.15
245.11
242.08
222.39
187.92
143.24
94.54
47.63
6.51
-26.44
-50.40
-65.56
-72.41
-71.18
-62.53
-47.66
-28.66
-8.03
12.02
29.74
43.43
50.14
47.51
33.30
7.72
-25.46
-59.36
-86.04
-100.00
-100.45
-90.82
-77.20
-65.40
-57.70
-53.12
-49.03
-42.99
-34.33
-24.14
-13.31
-2.36
9.07
22.41
38.55
56.81
75.13
89.88
97.98
98.01
90.01
74.58
51.92
20.94
-19.21
-67.15
-118.10
-164.08
-196.36
-208.66
-200.43
-176.52
-143.09
-108.49
-76.49
-47.01
-18.73
7.61
29.27
42.09
43.65
35.85
25.13
19.27
22.66
33.74
45.51
50.57
45.15
31.35
16.85
9.76
15.29
32.75
56.56
79.21
96.04
105.91
109.44
106.64
95.00
72.50
39.94
3.23
-27.40
-41.43
-34.01
-9.14
22.07
45.60
52.57
41.87
19.23
-6.77
-28.75
-43.38
-50.79
-51.94
-47.16
-34.56
-12.15
19.92
58.04
95.51
124.32
137.92
133.71
111.18
77.12
39.86
5.89
-21.59
-43.37
-60.65
-73.68
-81.05
-80.34
-69.43
-48.58
-20.33
11.14
40.78
64.23
79.03
84.94
83.74
78.33
70.98
63.30
56.32
49.60
40.85
27.31
5.60
-27.11
-71.68
-126.36
-185.94
-243.16
-291.68
-328.61
-354.30
-370.33
-376.78
-370.99
-348.80
-305.88
-240.82
-157.27
-63.50
30.79
117.71
193.11
256.03
300.28
318.17
307.90
276.47
235.81
196.80
166.03
144.97
130.80
118.92
105.73
90.02
72.46
54.49
36.93
20.12
4.12
-11.27
-25.99
-40.17
-55.04
-73.03
-95.39
-121.39
-147.32
-167.99
-178.74
-177.26
-164.32
-142.89
-116.82
-88.80
-61.14
-36.13
-15.54
-1.76
4.25
2.81
-4.90
-17.93
-35.34
-57.50
-85.58
-120.34
-160.11
-197.28
-220.24
-218.47
-194.27
-149.74
-86.77
-7.81
79.53
165.78
242.52
303.49
345.04
365.38
365.38
347.34
314.23
269.50
217.98
165.42
116.98
75.74
42.79
18.98
5.79
4.73
15.79
37.32
66.11
98.28
130.35
160.33
179.53
182.39
168.68
142.71
109.36
70.80
27.06
-21.24
-71.10
-115.91
-149.31
-164.98
-159.68
-135.20
-97.74
-55.90
-18.14
8.86
20.56
16.52
1.05
-18.77
-35.66
-44.24
-42.99
-34.42
-23.92
-17.04
-16.33
-20.89
-28.27
-36.43
-44.59
-52.89
-61.29
-68.76
-73.61
-73.57
-67.38
-55.94
-42.25
-30.18
-23.00
-22.30
-27.54
-36.69
-47.36
-57.94
-68.34
-79.69
-92.99
-108.31
-124.14
-137.71
-145.92
-146.17
-136.74
-116.70
-85.79
-44.53
4.68
57.75
109.57
155.44
192.09
218.09
233.19
237.84
232.83
218.61
196.49
169.50
141.82
117.01
96.44
78.81
61.43
43.07
22.91
1.63
-18.59
-35.44
-48.21
-57.80
-66.50
-76.75
-88.84
-104.21
-124.62
-150.74
-181.94
-217.57
-256.68
-299.09
-345.00
-380.91
-395.01
-381.18
-340.47
-278.31
-201.34
-114.25
-21.97
69.54
155.34
233.70
301.59
356.91
399.58
429.61
448.82
459.37
449.64
417.45
363.89
292.97
212.49
136.57
66.92
2.56
-59.76
-123.50
-190.80
-260.67
-332.04
-402.09
-456.84
-484.79
-479.28
-443.06
-384.89
-314.93
-242.56
-174.74
-114.53
-61.57
-14.88
28.86
73.04
121.43
176.61
237.66
300.20
358.41
406.26
436.78
444.83
417.14
358.19
280.00
196.50
119.81
57.63
12.11
-20.35
-45.68
-69.40
-93.92
-118.93
-142.75
-162.77
-176.30
-181.18
-176.87
-164.31
-145.81
-123.13
-99.28
-77.46
-59.96
-48.02
-41.75
-40.79
-44.47
-50.77
-57.11
-61.78
-63.85
-62.91
-58.72
-51.05
-39.56
-24.02
-4.51
18.54
43.76
69.10
92.44
111.85
125.85
133.67
135.04
130.34
120.74
108.22
95.27
84.52
77.51
74.20
73.14
71.92
68.63
62.47
54.42
46.43
40.29
35.97
32.33
28.32
24.11
21.36
21.83
26.28
33.33
39.83
41.18
34.27
19.39
0.38
-17.44
-30.10
-36.74
-39.60
-42.87
-52.02
-71.11
-101.00
-139.24
-181.39
-222.73
-259.40
-288.39
-298.84
-282.99
-241.52
-185.36
-129.95
-87.15
-61.46
-50.25
-46.58
-42.57
-32.47
-13.34
15.08
50.94
90.55
128.67
159.99
183.38
197.98
204.24
203.85
198.79
190.17
177.84
161.11
140.17
117.10
94.83
75.67
60.10
47.01
34.85
23.00
12.22
3.43
-2.58
-6.83
-12.13
-21.77
-37.34
-57.44
-78.21
-95.17
-105.28
-107.93
-104.76
-98.27
-90.58
-82.63
-74.45
-65.77
-56.40
-46.32
-35.26
-22.78
-8.41
7.78
24.82
41.10
55.00
65.78
73.78
80.16
86.03
91.82
97.11
100.83
101.81
99.13
92.40
81.75
67.66
50.84
32.22
13.02
-5.36
-21.59
-34.75
-44.44
-50.79
-54.30
-55.65
-55.56
-54.47
-52.49
-49.30
-44.43
-37.50
-28.68
-18.90
-9.70
-2.63
1.46
2.80
2.41
1.39
0.24
-1.47
-4.90
-11.14
-20.41
-31.91
-43.98
-54.83
-63.33
-69.28
-73.21
-76.02
-78.18
-79.41
-79.03
-76.35
-71.19
-64.08
-56.03
-48.06
-40.88
-34.52
-28.54
-22.49
-16.23
-9.95
-3.95
1.62
7.04
12.95
20.40
30.38
43.43
59.54
78.08
97.96
118.03
137.05
153.30
164.66
168.63
163.04
147.17
122.20
91.03
57.52
25.16
-3.77
-28.11
-47.41
-61.07
-68.23
-68.20
-61.14
-48.44
-32.46
-15.94
-1.06
10.83
19.43
25.13
28.46
29.81
29.33
27.04
23.05
17.89
12.22
6.73
1.89
-2.39
-6.62
-11.52
-17.68
-25.24
-33.75
-42.46
-50.58
-57.71
-64.04
-70.17
-76.73
-83.77
-90.63
-96.03
-98.64
-97.60
-92.92
-85.32
-75.64
-64.71
-53.12
-41.61
-31.26
-23.29
-18.53
-16.93
-17.37
-18.18
-18.14
-17.04
-15.65
-14.74
-14.12
-12.18
-6.49
4.82
21.91
42.70
63.65
81.25
93.35
99.75
101.71
100.83
98.11
93.58
86.65
77.08
65.38
52.80
40.88
30.68
22.36
15.41
9.18
3.49
-1.04
-3.26
-2.19
2.44
9.82
18.45
26.68
33.28
37.72
40.04
40.49
39.31
36.59
32.26
26.45
19.39
11.58
3.53
-4.24
-11.40
-17.81
-23.41
-28.36
-32.81
-36.79
-40.17
-42.63
-43.84
-43.73
-42.52
-40.68
-38.80
-37.47
-37.14
-38.28
-41.10
-45.54
-51.09
-56.83
-61.62
-64.52
-65.03
-63.24
-59.49
-53.96
-46.38
-36.05
-22.56
-6.15
12.09
30.70
48.38
64.26
78.13
90.00
99.83
107.24
111.57
112.46
110.04
104.96
97.66
88.52
77.97
66.61
55.17
44.27
34.76
27.18
22.04
18.54
15.72
13.07
10.85
9.61
9.62
11.16
13.49
15.93
15.96
11.31
1.02
-14.10
-32.51
-53.09
-74.79
-98.05
-123.06
-151.96
-186.09
-224.95
-265.85
-305.46
-341.39
-371.89
-397.46
-403.56
-380.33
-328.15
-258.95
-187.64
-124.18
-76.61
-40.14
-11.06
12.96
31.41
44.11
51.45
56.05
61.39
70.24
84.56
103.74
126.60
150.20
171.99
190.94
207.73
223.35
237.82
250.59
259.56
262.96
258.66
245.43
223.38
194.22
160.65
125.91
93.94
68.12
51.29
44.39
46.50
55.32
68.12
82.44
96.57
109.85
122.04
133.14
142.74
149.98
153.70
152.74
145.90
131.86
109.30
77.44
36.98
-9.51
-57.91
-103.80
-144.04
-177.75
-205.90
-229.62
-248.29
-258.61
-255.80
-235.89
-198.30
-146.54
-87.23
-27.79
25.84
70.06
103.28
124.73
133.93
130.38
114.47
87.75
52.94
13.49
-27.48
-67.54
-105.08
-138.67
-166.77
-187.40
-198.78
-199.57
-189.23
-168.15
-137.22
-97.56
-50.21
3.58
61.97
121.74
178.38
226.98
263.33
285.26
293.01
288.81
275.67
256.15
231.62
202.29
167.99
128.77
85.48
39.53
-7.68
-54.89
-101.15
-145.60
-186.99
-223.74
-254.12
-276.38
-289.32
-292.66
-286.99
-273.62
-254.17
-230.03
-202.42
-172.36
-140.66
-108.17
-75.87
-44.87
-16.38
8.47
28.93
44.57
55.22
61.13
62.88
61.34
57.47
52.31
46.74
41.51
37.24
34.47
33.98
36.47
42.34
51.22
62.31
74.35
86.26
97.28
106.78
114.15
118.16
117.36
110.20
96.03
75.48
50.46
23.61
-2.60
-26.09
-45.81
-61.30
-72.60
-80.04
-84.24
-86.18
-87.03
-88.20
-90.76
-95.30
-101.72
-109.00
-115.53
-119.30
-118.23
-110.35
-94.47
-69.99
-37.23
2.61
47.63
95.18
142.16
185.36
221.98
249.53
266.47
272.13
266.86
251.99
229.44
201.42
170.24
138.10
106.78
77.69
51.68
29.15
10.16
-5.70
-19.05
-30.58
-41.02
-51.01
-60.92
-70.98
-81.10
-90.81
-99.51
-106.48
-110.99
-112.43
-110.39
-104.66
-95.48
-83.36
-69.01
-53.35
-37.34
-21.93
-8.01
3.66
12.57
18.40
21.14
20.98
18.25
13.52
7.47
0.74
-6.17
-12.91
-19.25
-25.01
-30.16
-34.60
-38.20
-40.85
-42.52
-43.45
-44.15
-45.18
-47.07
-50.24
-54.79
-60.41
-66.61
-72.77
-78.45
-83.48
-87.82
-91.45
-94.31
-96.26
-97.15
-97.19
-96.99
-97.47
-99.51
-103.56
-109.37
-116.25
-123.48
-130.62
-137.32
-142.96
-146.14
-144.77
-136.79
-121.08
-98.01
-69.15
-36.33
-0.60
37.84
78.98
121.75
163.37
199.46
225.45
238.16
236.91
223.75
202.57
177.70
152.59
129.47
109.46
92.99
80.30
71.55
66.37
63.88
62.61
60.91
57.64
52.77
47.33
42.83
40.69
41.25
43.94
47.52
50.49
51.51
49.66
44.60
36.53
26.24
14.80
3.39
-6.95
-15.45
-21.65
-25.43
-26.93
-26.50
-24.73
-22.27
-19.79
-17.82
-16.68
-16.17
-15.82
-15.08
-13.56
-11.28
-8.59
-6.07
-4.22
-3.36
-3.29
-3.51
-3.46
-2.85
-1.95
-1.41
-2.01
-4.12
-7.65
-11.81
-15.62
-18.15
-19.01
-18.53
-17.48
-16.71
-16.80
-17.82
-19.35
-20.75
-21.34
-20.59
-18.45
-14.90
-9.94
-3.54
4.08
12.31
20.04
26.01
29.28
29.55
27.38
23.81
19.89
16.28
13.14
10.33
7.79
5.69
4.24
3.59
3.50
3.50
3.07
2.11
0.81
-0.38
-1.09
-1.35
-1.48
-1.93
-2.93
-4.29
-5.57
-6.37
-6.64
-6.73
-7.16
-8.38
-10.52
-13.36
-16.51
-19.60
-22.35
-24.46
-25.57
-25.28
-23.18
-19.19
-13.64
-7.29
-1.07
4.20
8.19
10.95
12.64
13.43
13.37
12.45
10.82
8.77
6.63
4.63
2.90
1.43
0.37
-0.05
0.40
1.84
4.06
6.52
8.62
9.91
10.22
9.65
8.40
6.60
4.31
1.61
-1.37
-4.42
-7.26
-9.71
-11.69
-13.25
-14.53
-15.64
-16.55
-17.12
-17.12
-16.37
-14.83
-12.52
-9.70
-6.68
-3.83
-1.46
0.28
1.42
2.16
2.73
3.44
4.36
5.49
6.76
8.24
9.97
11.99
14.18
16.17
17.42
17.36
15.74
12.71
8.83
4.72
1.03
-1.90
-3.89
-4.91
-5.01
-4.21
-2.61
-0.48
1.84
3.98
5.78
7.25
8.52
9.71
10.87
11.87
12.54
12.80
12.64
12.23
11.72
11.23
10.79
10.36
9.79
9.04
8.09
7.00
5.85
4.70
3.65
2.72
1.99
1.47
1.20
1.15
1.28
1.52
1.76
1.95
1.98
1.80
1.34
0.61
-0.49
-1.94
-3.74
-5.94
-8.51
-11.40
-14.46
-17.51
-20.29
-22.56
-24.10
-24.73
-24.39
-23.13
-21.11
-18.56
-15.73
-12.87
-10.22
-7.97
-6.28
-5.18
-4.62
-4.56
-4.87
-5.38
-5.98
-6.50
-6.91
-7.21
-7.45
-7.62
-7.86
-8.25
-8.77
-9.42
-10.12
-10.78
-11.35
-11.84
-12.19
-12.45
-12.60
-12.53
-12.11
-11.21
-9.63
-7.38
-4.50
-1.14
2.40
5.88
9.06
11.78
14.06
16.01
17.69
19.13
20.37
21.36
22.19
23.03
24.11
25.73
28.09
31.00
33.94
36.18
36.77
35.08
30.81
24.11
15.56
5.97
-3.91
-13.42
-21.98
-29.42
-35.66
-40.81
-45.15
-48.82
-51.70
-53.51
-53.82
-52.31
-49.17
-45.07
-41.03
-38.12
-36.86
-36.96
-37.43
-36.98
-34.53
-29.77
-23.07
-15.32
-7.49
-0.15
6.74
13.45
20.24
27.12
33.64
39.25
43.46
46.10
47.34
47.53
46.96
45.73
43.81
41.07
37.63
33.87
30.32
27.47
25.60
24.61
24.26
24.34
24.67
25.09
25.36
25.12
23.97
21.76
18.65
15.22
12.19
10.03
8.81
8.21
7.71
6.98
5.92
4.54
2.63
-0.21
-4.63
-11.15
-19.69
-29.56
-39.50
-48.24
-54.91
-59.32
-61.70
-62.67
-62.71
-61.80
-59.59
-55.41
-48.53
-38.53
-25.55
-10.29
5.93
21.59
35.42
46.66
55.29
61.73
66.55
70.03
72.06
72.30
70.59
67.18
62.69
58.07
54.06
51.02
48.80
47.00
45.22
43.18
40.77
37.84
34.19
29.58
23.75
16.63
8.35
-0.62
-9.55
-17.69
-24.36
-29.23
-32.29
-33.80
-34.15
-33.89
-33.44
-33.08
-32.96
-33.04
-33.31
-33.74
-34.20
-34.55
-34.72
-34.63
-34.18
-33.38
-32.24
-30.84
-29.28
-27.66
-26.01
-24.30
-22.49
-20.55
-18.51
-16.50
-14.76
-13.61
-13.44
-14.62
-17.35
-21.68
-27.39
-34.09
-41.07
-47.48
-52.46
-55.15
-54.94
-51.39
-44.45
-34.36
-21.79
-7.55
7.48
22.26
35.94
47.79
57.35
64.41
68.98
71.24
71.49
70.16
67.61
64.22
60.29
56.09
51.79
47.49
43.33
39.31
35.52
31.90
28.48
25.22
22.12
19.13
16.21
13.38
10.59
7.86
5.17
2.59
0.14
-2.18
-4.34
-6.37
-8.22
-10.01
-11.90
-13.96
-16.24
-18.79
-21.63
-24.76
-28.13
-31.65
-35.33
-39.29
-43.58
-48.33
-53.73
-59.87
-66.74
-74.11
-81.47
-88.16
-93.27
-95.63
-94.06
-87.49
-75.27
-57.27
-34.10
-6.98
21.98
50.26
75.42
95.45
109.09
115.78
115.75
109.86
99.68
86.37
71.03
54.71
38.55
23.69
10.90
0.55
-7.17
-12.07
-15.08
-17.42
-20.06
-23.34
-27.11
-31.31
-36.18
-42.03
-49.04
-58.70
-72.56
-91.48
-115.26
-142.91
-173.77
-207.92
-245.93
-278.48
-296.51
-294.60
-273.61
-238.57
-193.96
-142.60
-86.77
-29.29
26.35
75.24
115.51
145.97
166.33
177.47
180.71
177.70
170.54
162.17
155.09
147.33
139.60
133.44
130.34
130.88
134.67
140.85
148.57
156.57
163.78
169.73
173.91
175.59
173.61
166.88
154.99
138.52
118.55
96.33
73.10
49.42
25.52
1.73
-20.97
-41.01
-56.90
-68.03
-75.06
-79.30
-82.33
-85.07
-87.64
-89.51
-90.15
-89.41
-87.38
-84.14
-79.32
-72.38
-63.04
-51.90
-40.58
-31.45
-26.56
-26.68
-30.75
-36.22
-40.27
-41.00
-38.13
-32.70
-26.31
-19.99
-13.98
-7.97
-1.63
4.99
11.43
17.22
22.33
26.95
31.44
35.80
39.50
41.79
42.04
39.91
35.52
29.27
21.58
12.99
4.03
-4.77
-12.84
-19.66
-24.99
-28.97
-31.99
-34.52
-36.76
-38.51
-39.07
-37.70
-34.06
-28.37
-21.45
-14.29
-7.65
-1.83
3.10
7.24
10.52
12.67
13.57
13.40
12.72
12.11
11.92
11.96
11.75
10.88
9.08
6.49
3.47
0.59
-1.61
-2.62
-2.28
-0.83
1.20
2.92
3.69
3.05
1.11
-1.69
-4.80
-7.78
-10.43
-12.60
-14.23
-15.19
-15.54
-15.57
-15.73
-16.41
-17.76
-19.48
-20.93
-21.50
-20.82
-19.06
-16.80
-14.59
-12.64
-10.75
-8.53
-5.58
-1.98
1.89
5.52
8.49
10.80
12.74
14.74
16.96
19.31
21.26
22.27
22.05
20.54
18.13
15.26
12.30
9.40
6.64
3.98
1.62
-0.19
-1.32
-1.82
-1.88
-1.77
-1.62
-1.35
-0.84
0.11
1.56
3.30
5.04
6.48
7.41
7.74
7.44
6.45
4.81
2.65
0.11
-2.41
-4.50
-5.77
-5.99
-5.21
-3.83
-2.26
-0.81
0.40
1.59
2.95
4.51
6.08
7.40
8.28
8.77
9.04
9.29
9.71
10.31
10.97
11.53
11.77
11.52
10.76
9.53
8.09
6.95
6.70
7.92
10.95
15.62
21.26
26.99
31.73
34.70
35.51
34.21
31.18
26.87
21.63
15.64
8.96
1.30
-7.50
-17.05
-26.24
-33.64
-37.97
-38.56
-35.34
-28.47
-19.04
-8.00
4.22
17.76
32.56
47.91
62.56
75.20
85.20
90.99
91.12
84.92
73.33
58.11
41.04
23.60
6.71
-9.20
-26.09
-46.67
-72.93
-104.68
-140.82
-180.54
-223.53
-269.61
-307.17
-324.56
-316.00
-285.90
-243.64
-197.09
-150.23
-104.18
-58.90
-14.87
24.94
57.00
79.36
94.04
106.21
120.61
140.70
167.61
199.82
232.68
261.06
275.28
274.36
260.47
235.80
202.27
162.04
118.43
75.42
37.38
7.19
-13.67
-27.11
-36.80
-45.57
-53.17
-58.73
-62.51
-67.09
-76.79
-93.74
-114.97
-135.67
-148.26
-146.07
-127.53
-96.34
-59.75
-24.79
5.52
31.64
55.62
79.41
103.56
125.51
141.76
149.53
147.76
137.58
121.21
100.67
76.72
51.50
25.74
-0.25
-25.92
-50.16
-71.12
-87.09
-97.04
-101.05
-100.12
-96.50
-92.30
-88.97
-87.22
-87.35
-90.01
-95.79
-104.47
-113.67
-119.33
-116.65
-103.06
-80.57
-55.95
-38.69
-33.81
-41.19
-54.65
-65.13
-64.83
-51.26
-27.50
0.23
26.01
46.32
58.93
62.01
53.41
32.36
1.47
-32.68
-61.24
-77.40
-79.79
-74.38
-71.66
-81.80
-109.32
-150.26
-193.17
-223.43
-228.81
-203.14
-148.69
-74.73
5.57
78.94
135.52
170.99
185.32
181.32
163.85
138.10
109.51
83.83
66.85
59.51
64.43
82.55
112.13
149.60
190.45
230.54
267.17
298.50
322.62
336.60
335.21
312.63
265.78
197.63
118.27
42.38
-15.87
-47.76
-52.76
-38.95
-19.13
-5.69
-6.16
-21.12
-45.82
-73.57
-98.05
-114.10
-118.53
-109.74
-87.84
-55.63
-18.52
15.04
34.47
31.39
4.09
-41.19
-92.64
-138.57
-172.58
-194.01
-207.05
-217.24
-227.73
-237.66
-243.18
-240.52
-228.47
-208.99
-183.97
-155.66
-126.93
-101.07
-80.53
-65.18
-51.88
-35.54
-11.96
22.95
70.32
127.90
191.70
258.22
325.12
390.46
451.21
486.04
478.93
428.05
348.52
262.03
184.51
121.63
71.57
29.77
-7.70
-39.92
-64.03
-78.20
-83.30
-82.20
-78.16
-73.85
-71.19
-71.46
-73.10
-73.55
-71.09
-65.56
-57.94
-49.71
-42.35
-37.10
-35.06
-35.31
-35.84
-34.69
-31.01
-25.12
-18.61
-13.92
-13.69
-20.00
-32.88
-50.34
-69.15
-86.43
-99.86
-107.94
-109.71
-104.89
-94.12
-79.15
-63.27
-50.09
-43.66
-44.85
-50.74
-55.59
-53.68
-42.03
-21.39
4.17
29.83
52.63
73.27
94.53
119.35
148.61
179.40
206.28
221.77
222.16
207.86
183.28
153.07
119.24
79.74
29.93
-32.43
-104.79
-177.76
-238.96
-277.82
-290.06
-278.73
-249.54
-213.12
-176.69
-142.80
-110.32
-77.92
-46.08
-17.73
3.57
15.54
17.89
13.79
8.15
5.73
9.10
18.38
31.32
45.14
57.92
68.67
77.93
86.53
94.31
100.44
104.58
107.85
112.35
120.03
130.25
140.50
146.65
145.13
135.01
118.21
97.54
73.96
45.45
8.24
-39.77
-96.15
-153.41
-201.49
-231.94
-241.28
-231.80
-209.46
-179.59
-147.79
-116.14
-84.81
-54.02
-25.23
-0.97
16.53
26.61
30.47
30.38
29.45
29.72
31.57
34.15
36.01
36.03
34.24
31.72
30.01
30.99
35.63
43.61
53.78
64.70
75.19
84.76
93.44
101.01
106.97
109.97
108.07
99.48
83.27
60.00
31.80
2.06
-26.16
-50.49
-69.99
-84.97
-96.39
-105.47
-113.82
-122.03
-130.45
-138.19
-142.61
-139.97
-126.94
-102.60
-69.67
-34.14
-2.79
19.10
29.80
31.25
27.28
21.30
14.88
7.76
-1.12
-12.07
-24.30
-36.26
-46.55
-54.50
-60.24
-64.19
-66.29
-65.81
-61.54
-52.40
-38.09
-19.38
1.91
23.24
42.16
56.90
66.74
72.02
73.73
72.94
70.52
66.89
62.03
55.73
47.77
38.27
27.67
16.48
5.19
-5.71
-15.90
-25.18
-33.35
-40.25
-45.57
-49.04
-50.59
-50.40
-48.82
-46.36
-43.69
-41.47
-40.37
-40.82
-43.12
-47.42
-53.62
-61.45
-70.34
-79.58
-88.47
-96.55
-103.34
-108.68
-112.67
-115.33
-116.85
-117.37
-117.14
-116.61
-116.56
-117.55
-120.24
-124.89
-130.95
-136.90
-140.44
-138.77
-129.12
-112.95
-91.31
-65.89
-38.73
-11.77
13.56
36.57
57.33
76.51
95.24
115.30
137.68
162.05
186.62
208.58
225.26
235.16
238.30
236.09
230.82
224.09
216.56
208.19
198.83
188.73
178.59
169.17
160.89
153.96
148.10
143.08
138.89
135.73
134.12
135.09
139.92
149.68
164.38
181.77
197.45
205.60
200.62
179.46
143.07
96.28
46.46
1.09
-34.44
-57.64
-68.58
-68.77
-60.17
-45.04
-26.40
-8.20
5.09
9.60
3.56
-11.88
-33.07
-55.03
-73.37
-85.60
-91.40
-92.06
-89.57
-85.65
-81.24
-76.56
-71.22
-64.61
-56.15
-45.55
-33.08
-19.79
-7.36
2.23
7.52
8.23
5.52
1.57
-1.43
-2.30
-1.47
-0.45
-0.81
-3.19
-6.88
-10.41
-12.47
-12.69
-11.56
-9.66
-6.63
-1.21
7.84
20.32
33.72
43.89
46.87
40.91
27.42
10.28
-6.13
-18.83
-27.01
-31.59
-34.00
-35.36
-36.35
-37.83
-41.17
-48.05
-59.25
-73.73
-88.39
-99.10
-102.60
-97.95
-87.03
-73.81
-62.69
-56.95
-57.92
-64.93
-75.88
-88.08
-98.83
-105.98
-108.26
-105.37
-97.88
-86.98
-74.01
-60.16
-46.55
-34.28
-24.43
-17.56
-13.30
-10.06
-5.70
1.36
11.17
21.93
30.92
36.06
37.48
37.74
40.71
49.22
63.34
79.91
93.93
101.04
99.53
90.79
78.15
64.71
51.74
38.33
22.70
4.17
-15.24
-30.80
-36.74
-28.67
-5.79
28.35
66.81
101.85
127.55
141.69
145.70
142.72
135.29
123.81
106.85
82.82
52.10
17.77
-15.17
-41.86
-59.57
-68.50
-71.30
-71.70
-73.05
-77.27
-84.52
-93.14
-100.17
-102.20
-96.65
-82.86
-62.84
-40.62
-20.85
-6.99
-0.10
1.17
-0.68
-3.52
-6.57
-10.38
-15.77
-22.78
-30.05
-35.43
-36.91
-33.69
-26.59
-17.67
-9.09
-2.26
2.65
6.54
10.74
16.45
24.37
34.68
46.87
59.75
71.45
79.51
81.35
75.18
60.72
39.92
16.84
-3.55
-17.05
-21.78
-18.71
-10.87
-1.64
6.86
14.42
21.92
29.88
37.28
41.63
40.05
31.06
15.47
-3.81
-23.13
-39.73
-52.61
-62.26
-69.52
-74.54
-76.29
-73.07
-63.59
-47.73
-26.93
-3.88
18.68
38.89
56.17
70.93
83.77
94.48
102.13
105.43
103.27
95.33
82.01
64.09
42.47
18.13
-7.73
-33.28
-56.42
-75.85
-91.64
-105.39
-119.36
-134.82
-150.38
-163.77
-172.25
-172.16
-160.74
-136.37
-98.81
-49.49
7.99
67.63
121.60
162.28
184.30
185.93
169.41
139.75
102.70
63.18
24.85
-9.46
-36.59
-53.13
-56.44
-45.90
-23.76
5.05
34.50
59.13
75.55
83.18
83.79
80.34
75.49
70.20
62.82
49.36
25.22
-12.22
-61.23
-115.43
-165.62
-203.35
-224.03
-228.03
-219.19
-202.04
-179.51
-152.69
-122.35
-90.59
-61.03
-37.13
-19.74
-5.91
9.79
32.16
62.18
95.72
125.41
144.00
147.64
137.20
117.19
92.94
68.15
44.17
20.81
-1.45
-20.59
-33.62
-38.11
-33.71
-22.91
-10.27
-0.50
2.91
-0.37
-8.16
-17.20
-24.51
-27.95
-26.67
-21.14
-12.94
-5.45
-1.88
-4.57
-14.15
-28.52
-42.82
-50.71
-46.66
-27.95
3.29
42.69
85.22
127.16
163.16
188.73
200.42
195.83
180.77
157.56
130.03
104.90
87.36
82.22
89.71
104.27
116.24
116.11
97.32
60.51
12.79
-35.64
-74.96
-99.59
-109.56
-109.85
-107.65
-110.07
-120.10
-135.98
-152.86
-165.45
-171.16
-170.53
-166.43
-161.71
-158.33
-155.81
-152.26
-145.77
-135.10
-120.37
-101.52
-78.12
-49.55
-16.49
18.78
52.81
81.99
104.31
119.79
131.56
141.83
152.71
163.74
171.57
171.76
161.38
144.60
124.86
105.73
89.83
78.62
71.90
67.38
62.75
55.58
43.85
25.93
2.13
-25.45
-53.28
-77.86
-96.73
-108.91
-114.94
-116.22
-114.92
-113.00
-112.57
-115.59
-123.53
-136.04
-149.77
-158.63
-155.49
-135.29
-97.04
-44.94
12.84
66.93
110.18
139.99
158.38
170.01
179.27
188.16
195.78
199.54
197.07
187.74
172.93
154.83
135.11
114.20
91.94
68.49
45.23
24.34
7.82
-3.66
-11.38
-17.82
-25.44
-35.80
-49.48
-66.58
-87.27
-111.40
-137.70
-163.16
-183.48
-194.71
-195.35
-187.40
-175.72
-165.82
-161.12
-161.37
-162.83
-160.08
-148.52
-126.30
-95.04
-59.33
-25.46
0.83
16.62
23.09
25.53
31.43
47.90
79.16
124.92
179.72
234.59
278.85
302.35
298.07
264.65
207.93
140.30
77.22
31.11
6.99
0.69
1.47
-2.17
-16.88
-41.87
-70.76
-96.21
-114.99
-128.51
-141.02
-155.88
-172.90
-188.92
-200.72
-208.01
-208.41
-201.75
-187.34
-163.65
-129.95
-88.40
-44.82
-6.89
19.12
31.26
31.86
26.45
20.48
17.07
16.55
17.93
20.51
24.43
30.17
37.03
43.46
47.49
48.07
45.38
40.85
36.52
33.94
33.81
35.71
38.64
41.42
43.52
45.05
46.62
48.55
50.59
51.10
47.45
37.67
21.76
3.26
-11.69
-16.11
-6.43
15.76
44.21
70.60
87.43
89.81
77.22
51.29
15.42
-25.38
-65.25
-98.60
-121.37
-130.54
-128.10
-116.89
-97.93
-70.75
-32.26
17.56
73.80
127.36
167.93
186.94
180.79
150.80
102.40
44.14
-13.81
-60.49
-86.52
-87.02
-64.72
-28.93
7.47
32.83
40.56
30.32
6.76
-23.73
-53.67
-78.87
-97.91
-110.24
-113.76
-104.60
-79.22
-37.39
15.62
69.38
110.46
128.21
119.25
89.14
48.93
10.28
-17.89
-32.55
-32.83
-19.63
4.35
33.63
60.26
74.62
69.39
43.59
3.54
-38.75
-71.81
-89.28
-90.88
-79.46
-58.77
-30.78
4.20
44.87
88.78
131.60
168.76
191.76
196.92
183.28
151.84
109.84
61.69
14.78
-21.66
-40.33
-39.30
-20.18
8.06
32.67
42.73
33.31
8.06
-23.59
-51.50
-69.05
-74.50
-71.45
-65.27
-59.85
-56.32
-52.86
-47.33
-39.78
-33.04
-30.80
-36.05
-48.57
-64.88
-80.80
-93.68
-104.05
-114.47
-126.88
-139.97
-149.62
-150.80
-140.73
-120.97
-96.76
-74.70
-60.10
-55.40
-59.77
-70.24
-82.25
-90.16
-87.70
-69.27
-31.92
22.52
86.65
148.94
197.03
221.97
220.96
197.91
161.45
121.34
85.04
55.65
32.22
11.99
-6.86
-23.42
-34.07
-34.99
-24.98
-7.20
11.75
25.26
30.50
30.02
30.19
37.04
51.91
69.69
81.12
77.82
57.45
25.59
-7.00
-29.87
-38.07
-34.04
-25.13
-18.83
-18.56
-22.30
-24.66
-20.85
-9.67
6.10
21.77
33.87
41.48
45.94
49.37
53.10
56.73
58.64
57.51
53.50
48.89
46.57
48.32
53.76
60.56
64.68
61.94
49.77
27.61
-0.57
-27.92
-47.42
-56.22
-54.76
-46.84
-38.56
-34.79
-39.73
-54.27
-75.49
-96.92
-110.06
-107.59
-88.09
-57.82
-29.04
-15.40
-25.90
-61.95
-117.24
-179.92
-232.28
-257.09
-245.06
-200.34
-137.32
-71.03
-11.28
37.99
77.35
108.74
131.06
142.25
141.54
130.64
114.47
99.08
87.01
79.88
76.50
72.87
64.18
46.49
16.88
-21.82
-62.10
-95.30
-115.51
-122.00
-117.40
-106.18
-87.70
-58.76
-16.27
40.13
107.22
179.87
248.43
297.53
316.56
303.98
267.42
218.82
168.62
123.12
85.37
56.55
37.32
28.83
27.50
27.33
21.16
2.99
-29.62
-74.37
-125.42
-171.58
-201.02
-207.80
-194.02
-167.52
-137.03
-108.45
-84.07
-64.01
-47.74
-35.24
-27.00
-22.95
-21.99
-22.22
-21.57
-18.86
-14.22
-8.74
-4.05
-1.53
-1.47
-2.92
-4.26
-3.85
-0.90
4.36
10.85
16.81
20.28
19.82
15.05
7.48
-0.05
-4.15
-2.36
5.51
16.90
27.42
33.16
32.40
26.45
18.77
13.12
11.87
15.18
21.35
27.95
32.91
34.74
32.33
24.62
10.92
-8.40
-31.32
-54.35
-73.18
-83.76
-83.79
-73.51
-55.65
-34.34
-13.76
3.01
15.06
21.68
23.11
20.12
13.91
6.07
-1.33
-5.93
-6.02
-1.33
6.51
14.62
19.83
20.00
14.85
5.98
-3.82
-11.60
-15.38
-14.80
-10.91
-5.72
-1.12
1.87
3.39
4.29
5.43
7.06
8.83
10.23
11.13
11.85
12.86
14.43
16.36
18.32
20.01
21.18
21.52
20.52
17.70
12.89
6.71
0.31
-4.91
-7.92
-8.44
-6.79
-3.60
0.40
4.33
7.16
7.80
5.94
2.42
-1.01
-2.31
-0.29
4.72
11.06
16.69
20.09
21.59
22.70
24.73
27.84
30.92
32.52
31.90
29.78
27.62
27.90
32.29
40.37
50.21
59.66
67.70
74.25
78.83
78.58
70.43
51.94
22.68
-14.35
-53.41
-88.71
-117.60
-141.94
-166.75
-193.26
-216.64
-227.89
-218.01
-183.33
-128.08
-63.25
4.25
59.44
91.64
102.34
100.62
93.35
81.44
63.19
38.50
10.59
-16.07
-36.08
-46.32
-49.64
-48.94
-46.94
-44.65
-41.94
-38.39
-34.66
-30.31
-24.88
-18.73
-13.06
-9.35
-8.34
-8.97
-9.85
-9.36
-5.36
3.02
14.27
23.00
23.74
15.72
3.78
-5.27
-7.06
-1.50
7.83
15.67
18.43
15.99
11.21
7.37
6.03
6.83
8.94
11.91
15.84
21.51
30.03
42.39
58.41
76.61
94.63
107.03
111.57
107.89
97.35
82.69
67.19
53.77
44.03
38.15
35.05
33.27
31.28
27.98
23.35
18.22
13.60
10.29
8.83
9.78
13.61
19.74
25.65
27.44
20.93
3.70
-23.14
-54.59
-82.50
-99.19
-101.27
-90.55
-72.26
-52.06
-33.49
-17.20
-2.24
12.11
25.07
34.83
39.81
40.03
37.21
33.74
32.09
33.04
35.53
36.91
34.46
26.68
14.26
-0.15
-13.12
-21.50
-23.95
-21.27
-16.18
-11.93
-11.08
-14.74
-22.78
-34.62
-48.69
-62.84
-74.49
-81.51
-83.05
-80.52
-77.40
-78.02
-85.83
-100.23
-116.64
-128.14
-128.88
-116.79
-94.55
-68.17
-40.66
-16.45
2.42
16.11
25.91
32.65
36.28
36.38
33.08
27.82
22.45
19.25
19.48
22.85
27.69
31.98
34.34
34.57
33.67
32.61
32.58
33.92
36.15
37.96
37.92
35.35
30.55
24.92
19.87
16.70
15.80
16.59
17.98
18.85
18.83
18.10
17.39
17.15
17.55
18.27
18.76
18.47
17.05
14.59
11.42
8.13
5.23
3.13
2.04
1.83
2.13
2.33
1.94
0.63
-1.59
-4.34
-7.27
-10.16
-13.04
-16.07
-19.46
-23.12
-26.76
-29.95
-32.24
-33.32
-33.05
-31.54
-29.08
-26.17
-23.45
-21.58
-20.96
-21.37
-21.97
-21.73
-19.93
-16.50
-12.03
-7.54
-4.07
-2.11
-1.22
-0.26
1.97
5.82
10.47
14.30
15.34
12.11
4.53
-5.77
-15.75
-22.50
-24.48
-21.74
-15.21
-6.48
2.21
8.14
8.75
2.98
-7.69
-19.06
-24.93
-19.31
0.67
31.35
62.69
81.94
81.69
64.14
37.76
10.88
-12.39
-32.49
-52.26
-73.32
-94.80
-113.68
-126.74
-132.73
-132.87
-130.35
-128.82
-131.18
-137.60
-146.03
-152.68
-153.76
-147.39
-134.29
-117.24
-99.83
-85.17
-73.45
-62.91
-50.27
-32.40
-7.84
23.06
59.50
102.11
147.16
193.10
236.91
273.02
294.42
296.11
278.66
249.29
218.87
196.15
184.17
178.49
171.40
157.73
138.34
119.03
105.92
100.53
98.46
93.65
82.79
68.92
60.36
65.02
84.28
109.94
127.00
121.03
86.93
32.03
-26.83
-71.40
-90.56
-84.77
-63.70
-39.47
-20.25
-7.50
0.69
4.49
0.30
-16.70
-46.89
-82.53
-110.07
-117.57
-102.58
-74.95
-51.51
-45.94
-60.60
-85.35
-104.96
-109.31
-99.18
-83.91
-73.36
-70.25
-68.53
-59.01
-37.43
-9.31
12.86
18.08
5.48
-14.19
-25.09
-16.10
12.36
50.00
83.76
105.01
113.73
116.12
118.08
119.82
115.87
100.02
72.02
39.47
13.73
3.48
9.61
24.13
34.06
28.02
-0.81
-47.83
-98.06
-135.11
-151.04
-148.82
-137.43
-125.00
-114.54
-104.70
-93.49
-79.33
-64.88
-54.94
-52.62
-56.26
-59.25
-53.10
-31.80
5.06
50.80
92.58
117.55
118.94
98.67
65.19
28.21
-5.49
-32.78
-52.77
-64.90
-67.79
-60.50
-44.50
-24.23
-5.10
9.64
21.03
33.03
48.76
67.50
83.83
90.14
80.93
56.19
21.75
-13.62
-42.65
-62.23
-72.96
-76.13
-71.44
-57.17
-32.73
-1.80
26.93
43.10
40.31
20.61
-5.70
-25.21
-29.34
-19.08
-3.74
5.56
3.14
-8.32
-20.25
-24.37
-17.80
-4.37
8.81
16.27
17.49
17.02
21.34
34.75
56.27
79.31
94.46
94.35
78.12
53.42
33.38
30.44
50.03
87.19
128.22
157.44
164.24
147.29
113.70
74.27
37.60
7.46
-16.77
-38.17
-59.16
-80.63
-101.83
-121.52
-139.06
-154.91
-169.01
-178.98
-181.09
-171.38
-149.03
-117.99
-86.86
-66.39
-65.72
-87.88
-124.51
-160.75
-180.08
-173.77
-144.92
-104.60
-64.62
-33.17
-15.13
-7.35
-5.80
-6.63
-6.66
-2.55
8.69
30.38
60.08
90.36
113.27
123.87
122.14
111.12
95.00
77.50
61.37
48.92
41.29
40.25
47.36
62.78
84.47
109.59
135.54
160.33
182.18
199.25
203.52
189.67
157.11
110.13
56.76
5.35
-37.76
-68.80
-85.59
-86.91
-74.36
-51.07
-24.54
-5.16
-2.51
-21.18
-58.74
-106.68
-154.14
-191.72
-212.23
-214.87
-203.48
-184.02
-162.10
-141.94
-126.34
-116.81
-112.83
-111.84
-110.47
-105.55
-95.85
-83.33
-72.62
-68.71
-74.23
-87.37
-102.26
-111.92
-110.83
-97.00
-72.31
-41.31
-8.87
20.66
44.51
62.04
74.20
83.52
93.37
106.91
126.38
152.83
184.79
217.82
245.47
261.06
260.67
245.17
220.89
197.98
187.24
194.18
216.14
243.04
261.35
259.97
234.10
186.51
120.49
45.76
-26.06
-84.98
-124.90
-143.76
-141.81
-121.19
-86.85
-45.96
-6.29
25.09
44.61
54.04
56.92
58.92
62.75
65.56
60.16
39.96
3.01
-45.68
-95.54
-135.00
-155.90
-157.06
-143.59
-123.70
-104.59
-90.68
-83.23
-81.12
-82.18
-83.70
-83.73
-81.08
-75.33
-66.58
-55.55
-43.25
-30.61
-18.19
-5.96
6.14
18.16
29.78
40.03
46.98
48.04
41.21
26.36
6.12
-14.85
-31.24
-38.78
-35.60
-22.39
-1.85
22.19
44.85
60.12
61.09
42.44
3.12
-51.64
-110.99
-161.73
-192.73
-199.30
-184.61
-158.24
-130.61
-108.82
-94.84
-86.95
-82.11
-77.27
-70.77
-62.30
-53.82
-47.35
-45.07
-48.68
-59.14
-74.70
-89.02
-92.87
-77.92
-42.34
9.77
69.74
128.66
180.40
217.51
236.16
236.22
231.33
227.13
225.01
221.35
217.24
216.17
222.16
238.41
265.43
300.25
335.25
360.99
367.99
349.73
304.12
234.54
149.86
61.24
-24.42
-100.43
-161.41
-204.89
-230.74
-240.82
-237.69
-223.91
-202.77
-178.42
-155.45
-137.24
-125.09
-117.75
-112.60
-107.08
-99.48
-89.61
-78.51
-67.84
-59.10
-52.99
-49.02
-45.97
-42.52
-37.84
-31.86
-25.14
-18.45
-12.53
-7.84
-4.28
-1.35
1.57
4.94
8.78
12.84
16.92
20.87
24.61
28.38
32.41
36.94
41.97
47.09
51.63
54.72
55.70
53.93
49.15
41.30
30.66
17.85
3.46
-11.57
-26.32
-39.60
-50.33
-57.44
-60.18
-58.35
-52.19
-42.96
-32.17
-21.46
-11.92
-4.26
1.60
6.13
9.77
12.82
14.47
13.76
9.92
3.09
-5.85
-15.12
-22.71
-27.12
-27.74
-25.98
-24.00
-23.75
-25.91
-29.88
-34.02
-36.54
-36.58
-34.70
-33.90
-38.36
-51.99
-74.42
-105.53
-144.97
-191.99
-244.80
-291.49
-318.67
-316.29
-282.74
-225.87
-159.51
-97.34
-48.44
-15.69
2.35
11.27
15.49
18.42
23.28
33.35
52.15
82.77
127.08
180.19
233.62
277.75
305.92
316.76
313.54
301.93
287.86
275.77
267.69
262.89
257.31
245.03
220.66
182.02
131.81
77.47
28.36
-8.11
-28.85
-36.15
-35.39
-31.69
-27.46
-22.80
-16.77
-9.56
-3.70
-2.29
-7.96
-21.15
-40.01
-60.85
-80.39
-95.54
-106.39
-115.46
-125.00
-136.36
-149.05
-163.16
-174.52
-180.04
-178.52
-171.19
-161.51
-152.66
-147.18
-146.63
-151.62
-161.71
-175.87
-191.61
-200.52
-198.10
-181.64
-152.29
-115.62
-79.75
-52.05
-36.57
-32.84
-36.66
-43.68
-50.68
-56.36
-60.91
-64.44
-66.53
-66.45
-64.01
-59.90
-55.58
-52.16
-50.06
-48.72
-46.50
-41.50
-31.99
-16.66
1.38
20.18
38.85
57.63
77.45
99.59
124.77
152.97
183.38
214.63
246.13
277.72
310.14
344.67
383.27
427.78
478.89
534.77
589.94
636.44
665.17
669.51
647.65
603.66
545.84
483.36
423.20
368.24
318.51
272.29
228.49
187.12
148.93
114.33
82.45
51.49
19.28
-15.15
-51.56
-88.02
-121.96
-150.99
-173.73
-190.44
-202.61
-212.62
-222.50
-233.54
-245.60
-257.62
-268.42
-277.22
-284.57
-292.00
-301.77
-316.14
-337.18
-366.69
-406.05
-455.59
-513.14
-573.51
-628.49
-669.23
-689.10
-686.24
-664.22
-630.10
-591.66
-554.19
-519.91
-488.24
-457.92
-428.36
-399.92
-373.33
-348.59
-324.86
-300.67
-275.17
-248.37
-221.24
-195.20
-171.14
-149.13
-128.28
-107.38
-85.30
-61.72
-37.08
-12.29
11.75
34.74
56.92
78.97
101.38
124.24
147.15
169.51
191.05
212.01
233.42
256.36
281.69
309.33
338.40
367.63
395.84
422.65
448.41
474.33
502.11
533.89
571.68
616.42
666.84
718.35
763.50
793.49
801.41
784.67
746.06
692.61
632.54
572.62
516.35
464.58
416.70
372.40
331.95
295.71
263.42
233.62
204.49
174.51
143.50
112.44
83.01
56.58
33.27
12.20
-8.38
-29.62
-51.72
-73.49
-92.90
-108.25
-118.92
-126.15
-132.36
-140.60
-152.92
-169.77
-190.07
-211.61
-232.45
-251.64
-269.87
-289.02
-312.21
-342.89
-384.05
-436.99
-499.61
-566.17
-627.65
-674.62
-700.02
-701.88
-683.51
-651.51
-612.78
-571.68
-529.78
-486.59
-441.82
-396.29
-351.90
-310.16
-270.77
-231.54
-189.07
-140.92
-86.67
-28.32
30.52
86.33
136.98
182.66
225.26
267.85
313.44
364.60
422.73
487.37
555.57
621.35
676.83
714.04
727.98
718.38
689.97
650.53
607.75
566.87
529.52
494.95
461.39
427.72
393.65
359.19
324.03
287.20
247.90
205.77
161.66
117.08
74.03
34.07
-2.00
-34.08
-62.73
-88.65
-112.73
-135.72
-158.34
-181.12
-204.32
-227.75
-250.66
-272.16
-291.38
-308.09
-322.83
-336.89
-352.24
-371.28
-396.91
-431.87
-477.64
-532.87
-592.46
-647.99
-689.95
-711.06
-708.72
-685.93
-649.45
-606.89
-563.92
-523.20
-485.08
-449.07
-415.15
-383.68
-354.75
-327.23
-299.01
-267.87
-232.75
-194.60
-155.65
-118.51
-84.43
-52.84
-21.39
12.91
52.30
97.42
146.85
198.06
248.46
296.65
342.58
387.49
433.47
482.77
537.20
596.31
656.95
712.83
755.77
777.92
774.52
746.20
698.84
641.60
581.87
524.15
469.64
417.85
368.34
321.44
278.41
240.19
206.72
173.35
134.98
88.54
34.81
-22.20
-77.47
-126.60
-167.27
-199.00
-227.82
-260.09
-299.13
-343.36
-387.54
-425.93
-454.47
-471.89
-479.12
-485.37
-499.91
-528.15
-570.16
-622.62
-682.43
-747.56
-816.00
-850.72
-823.58
-726.05
-576.90
-409.96
-255.28
-130.75
-41.74
11.75
43.34
58.67
59.98
49.43
31.34
12.04
-2.36
-7.59
-2.02
14.25
34.32
51.16
60.86
64.04
64.59
66.65
72.82
83.88
99.38
114.69
125.57
130.37
130.58
129.58
130.52
134.88
142.56
152.61
162.23
169.57
174.86
180.31
188.70
202.05
220.29
242.09
265.39
287.94
308.67
328.10
348.10
370.94
398.92
433.20
473.46
516.67
556.97
586.36
596.97
583.88
546.67
489.90
420.82
346.86
273.04
201.73
133.51
68.59
8.01
-47.10
-96.24
-140.73
-183.49
-228.33
-278.80
-336.82
-401.95
-470.20
-534.76
-587.06
-619.53
-628.21
-614.32
-583.99
-545.51
-506.61
-471.61
-441.53
-414.96
-390.29
-366.86
-344.87
-324.65
-305.45
-285.70
-263.35
-237.31
-207.67
-175.70
-143.20
-111.31
-80.39
-49.76
-18.56
13.88
47.44
81.47
115.25
148.31
181.00
213.97
248.02
283.28
319.36
355.31
390.09
423.22
454.71
485.45
516.84
551.01
590.08
635.06
684.49
733.27
773.37
795.65
793.47
765.02
714.38
649.77
580.36
513.34
452.22
397.43
347.66
301.75
259.02
219.00
180.97
143.54
105.41
65.78
24.93
-16.33
-56.83
-96.02
-134.15
-171.96
-210.39
-249.86
-290.24
-330.60
-370.01
-407.67
-443.51
-478.58
-514.92
-555.10
-600.73
-651.06
-701.98
-746.42
-776.40
-785.61
-771.91
-737.81
-689.51
-634.21
-577.95
-524.40
-474.94
-430.03
-389.90
-355.18
-326.07
-302.00
-281.17
-261.17
-239.84
-215.94
-189.60
-162.06
-135.16
-110.09
-87.14
-65.31
-42.89
-18.27
9.41
39.67
71.12
101.81
130.45
156.63
181.16
205.67
231.74
260.69
292.90
328.13
365.08
401.58
434.47
460.16
475.57
479.02
471.31
455.34
435.34
415.15
396.93
380.90
366.00
351.31
336.80
323.73
313.41
306.45
302.05
298.17
292.82
284.70
274.08
262.28
251.57
243.96
240.86
242.73
248.70
257.25
266.48
275.20
283.00
290.36
297.69
304.60
309.76
311.03
306.75
296.32
280.71
261.58
240.50
218.31
194.90
169.96
143.17
115.14
86.96
60.12
35.93
14.95
-3.13
-19.68
-36.39
-55.12
-76.88
-101.78
-129.07
-157.48
-186.04
-214.09
-241.69
-269.02
-296.55
-324.60
-353.76
-384.99
-419.29
-457.04
-497.10
-536.75
-571.86
-598.70
-615.48
-623.19
-625.18
-625.32
-626.45
-629.20
-632.36
-633.47
-630.07
-620.05
-601.81
-574.60
-538.47
-494.93
-446.79
-397.66
-350.74
-307.98
-269.85
-235.57
-204.12
-174.53
-146.41
-119.44
-93.22
-67.23
-40.95
-14.07
13.58
41.68
69.90
97.84
125.23
152.09
178.52
204.77
230.92
257.45
284.91
314.31
346.24
380.09
413.52
442.50
462.71
470.79
465.88
449.40
424.61
395.09
363.80
332.94
303.86
277.71
255.14
236.37
220.71
206.94
193.84
180.46
166.78
153.08
140.13
128.59
119.08
111.98
107.42
105.23
104.62
104.84
104.84
104.21
103.13
102.53
103.66
107.64
115.19
126.14
139.95
155.63
172.35
189.34
205.73
220.66
233.13
242.79
249.91
255.75
261.52
267.53
272.68
274.51
270.64
259.82
243.30
223.77
204.50
187.41
172.55
158.89
145.24
131.60
118.63
107.21
97.19
87.53
76.98
65.03
52.65
41.31
32.24
25.05
17.94
8.42
-5.50
-24.23
-47.00
-71.96
-97.41
-121.93
-144.84
-166.17
-186.71
-207.90
-231.20
-258.03
-288.66
-322.57
-358.28
-394.05
-428.59
-461.36
-492.83
-524.06
-556.97
-593.55
-635.22
-681.57
-729.05
-771.10
-799.32
-806.45
-789.00
-749.08
-693.41
-630.78
-568.99
-512.43
-462.35
-417.81
-377.88
-342.21
-311.13
-284.42
-260.61
-237.38
-212.17
-183.72
-152.25
-119.64
-88.20
-59.67
-34.38
-10.98
12.58
38.46
67.57
99.51
132.64
165.06
195.44
223.48
250.13
276.83
305.34
337.03
372.90
412.94
455.62
497.74
534.34
560.35
572.10
569.18
554.54
533.53
511.73
492.84
478.05
466.26
455.57
444.11
430.75
414.57
394.49
369.69
340.06
307.30
274.73
246.67
226.65
216.02
213.09
213.57
212.44
205.44
190.61
168.23
140.08
107.98
73.17
36.56
-0.98
-37.80
-72.16
-102.65
-129.05
-151.72
-170.15
-182.03
-183.19
-169.91
-141.75
-103.88
-66.14
-39.99
-33.92
-50.09
-84.29
-128.61
-175.89
-222.30
-267.63
-312.63
-356.27
-394.53
-421.08
-430.37
-419.35
-388.74
-341.95
-284.36
-222.71
-165.03
-121.13
-100.47
-109.22
-146.22
-201.77
-259.29
-300.66
-312.81
-292.09
-245.83
-189.09
-140.05
-113.74
-117.91
-150.97
-202.96
-259.16
-304.32
-327.81
-325.79
-301.61
-263.03
-218.73
-175.38
-136.24
-102.38
-73.52
-49.23
-28.49
-9.12
12.61
41.46
80.77
130.28
184.10
232.06
262.57
268.02
248.64
213.43
177.65
156.66
160.37
189.04
234.25
282.46
320.78
341.36
342.78
329.15
306.73
281.67
257.98
237.62
220.92
207.23
195.84
185.69
175.94
165.67
154.29
140.98
124.79
104.66
79.88
51.31
21.39
-5.80
-26.56
-38.70
-42.58
-40.32
-33.83
-23.42
-7.33
16.41
48.21
85.06
121.35
151.09
170.58
180.11
183.22
184.88
188.76
195.93
204.53
210.93
211.84
205.53
192.97
176.92
161.11
148.12
138.44
130.31
120.52
106.13
85.42
58.55
26.67
-8.51
-45.93
-85.11
-125.74
-167.85
-211.51
-257.32
-305.74
-356.28
-405.93
-448.93
-478.02
-487.17
-474.64
-443.86
-402.28
-357.92
-315.92
-276.95
-238.06
-195.32
-146.15
-90.64
-30.86
30.01
88.43
140.78
182.75
209.78
217.87
205.56
175.02
132.76
87.95
49.68
24.59
14.69
17.85
29.52
45.53
63.41
82.93
104.66
128.17
151.62
172.01
187.48
198.67
208.94
222.14
240.02
260.24
276.30
280.39
266.50
233.42
184.92
128.01
69.57
13.70
-38.90
-90.44
-143.64
-200.16
-259.10
-316.92
-368.36
-407.94
-432.34
-441.89
-441.34
-437.47
-436.31
-439.56
-443.54
-441.19
-425.63
-394.23
-349.64
-298.55
-247.69
-201.04
-158.64
-117.93
-76.51
-33.39
10.56
54.31
97.48
141.08
185.97
231.07
272.58
304.20
319.71
315.28
291.71
253.84
209.11
165.09
127.31
98.83
80.42
71.73
71.35
77.23
86.47
95.76
102.49
105.08
103.71
99.58
94.71
90.70
88.59
88.67
90.42
92.90
94.62
94.48
91.68
86.57
79.89
72.54
65.10
57.60
50.43
44.48
41.88
44.67
53.87
68.68
86.57
104.78
121.41
136.70
152.28
170.55
193.11
220.14
250.63
282.88
315.23
345.86
373.04
394.25
406.64
407.35
394.34
367.63
329.47
284.74
239.73
201.08
173.45
158.24
153.01
152.35
150.43
142.91
128.84
110.10
90.12
71.90
56.56
43.45
30.65
16.59
0.28
-18.31
-38.92
-61.47
-85.98
-112.30
-139.56
-166.61
-191.78
-214.26
-234.50
-254.34
-276.30
-301.73
-329.96
-358.07
-382.57
-401.29
-415.20
-428.17
-445.15
-470.45
-505.89
-550.94
-602.70
-656.51
-705.89
-743.05
-760.47
-752.83
-719.82
-666.54
-602.50
-537.94
-480.38
-432.83
-394.05
-360.82
-329.78
-299.18
-268.35
-237.24
-205.54
-172.29
-136.63
-97.68
-55.40
-10.50
35.44
80.83
124.19
164.60
202.08
236.96
270.36
303.62
338.70
377.63
421.78
470.54
519.93
563.12
591.19
596.35
574.36
526.88
461.61
390.54
327.29
283.16
265.18
274.49
307.57
357.57
416.19
474.98
525.58
560.72
574.56
564.52
531.89
482.55
424.78
367.27
316.80
276.76
246.89
224.61
207.52
194.31
185.08
179.70
177.57
177.67
178.79
179.32
177.29
171.33
160.71
145.33
124.52
98.12
67.18
34.64
2.66
-27.48
-55.11
-79.66
-100.89
-121.64
-144.12
-168.30
-189.33
-205.46
-217.48
-228.03
-239.25
-253.07
-276.54
-314.05
-364.37
-415.45
-461.39
-500.83
-536.31
-569.36
-601.02
-640.91
-694.59
-759.79
-817.64
-860.11
-886.76
-903.49
-914.99
-925.72
-952.31
-1006.78
-1090.13
-1178.69
-1258.52
-1320.80
-1362.96
-1382.29
-1299.42
-1079.54
-745.58
-447.93
-227.33
-83.55
20.33
99.66
164.17
219.27
255.45
266.60
255.88
248.20
254.13
274.83
303.28
334.28
364.07
380.87
377.81
356.30
335.26
322.97
320.92
324.57
330.88
337.84
338.17
327.61
306.77
287.15
273.49
266.44
263.05
261.50
260.66
256.80
247.69
233.27
218.86
206.60
197.05
189.38
183.47
179.54
176.50
173.42
169.61
166.21
163.42
161.40
160.50
161.64
165.97
173.91
185.14
198.58
212.79
226.39
238.66
249.78
260.62
272.72
287.87
307.79
333.14
362.46
391.34
412.95
420.19
408.30
377.30
332.26
281.97
235.81
200.63
179.02
169.66
169.35
174.42
181.85
189.27
194.62
197.09
196.10
191.67
184.32
175.28
166.08
157.96
151.82
148.21
149.55
157.42
172.11
191.98
214.42
236.54
255.68
270.68
281.11
290.47
301.00
312.66
322.97
329.16
330.09
325.99
319.22
311.06
305.03
300.69
293.81
278.20
249.30
207.41
156.04
102.39
24.66
-84.21
-216.15
-349.79
-463.08
-544.40
-586.93
-604.17
-609.29
-612.58
-614.94
-613.36
-603.38
-580.06
-540.54
-483.57
-413.69
-338.12
-265.99
-200.96
-143.03
-90.20
-40.81
5.52
50.90
96.22
142.66
189.69
236.88
281.55
317.70
337.60
321.71
264.16
175.96
82.34
7.50
-35.84
-47.74
-36.61
-12.58
16.74
49.70
85.45
121.59
153.08
174.90
185.14
184.02
173.11
154.29
131.98
110.31
92.40
79.24
64.03
44.76
21.98
-3.22
-31.02
-54.25
-71.28
-83.57
-94.35
-106.47
-120.00
-133.86
-146.56
-157.04
-164.63
-171.20
-179.28
-191.13
-207.56
-226.80
-246.23
-263.43
-276.98
-286.53
-293.99
-302.22
-314.24
-332.33
-356.25
-383.25
-407.92
-423.01
-421.07
-397.16
-349.81
-282.08
-201.29
-117.55
-42.30
14.06
44.24
45.48
19.33
-28.49
-89.48
-153.37
-209.27
-247.43
-261.06
-247.80
-210.69
-157.73
-99.42
-45.58
-2.19
30.31
56.46
83.07
115.44
154.11
193.71
224.82
237.66
226.49
192.16
142.32
88.79
43.17
12.96
-0.77
-3.35
-4.44
-14.69
-41.27
-84.72
-137.98
-189.34
-227.57
-246.79
-248.30
-238.06
-221.76
-201.49
-176.45
-146.86
-117.81
-99.11
-100.58
-125.73
-167.80
-211.76
-241.09
-245.29
-223.94
-185.13
-139.77
-96.00
-56.70
-21.16
11.33
39.02
58.13
65.79
63.18
56.14
53.06
60.82
81.52
111.38
143.08
169.65
187.80
199.24
209.41
224.74
249.85
285.27
326.51
364.53
388.09
387.40
358.37
305.21
239.77
177.89
133.77
115.04
120.68
142.28
167.88
186.64
191.98
182.30
159.43
126.04
83.78
33.38
-23.45
-81.98
-133.24
-166.04
-170.89
-144.08
-89.85
-18.70
56.54
124.84
179.08
216.02
234.94
236.70
223.91
200.90
173.07
145.14
119.06
93.14
63.20
25.32
-21.05
-71.09
-115.32
-142.92
-146.48
-126.12
-90.79
-55.48
-35.32
-38.77
-63.20
-95.92
-119.94
-122.28
-100.35
-63.47
-28.41
-11.74
-22.20
-57.12
-103.85
-145.27
-166.45
-160.09
-128.34
-81.30
-33.04
3.70
21.44
19.56
2.99
-20.87
-45.28
-65.82
-80.15
-87.10
-86.29
-78.77
-67.95
-59.43
-59.12
-70.11
-90.08
-111.32
-123.45
-117.56
-89.55
-41.56
18.78
80.49
131.87
163.31
169.99
153.82
123.12
89.57
63.29
48.87
44.38
44.20
43.28
39.99
35.94
33.39
32.78
32.57
31.53
31.48
37.86
57.35
93.98
146.20
206.66
264.66
309.82
335.03
337.81
320.33
288.64
251.37
217.44
193.39
181.17
177.41
175.00
166.19
145.56
111.37
64.93
9.28
-51.98
-114.74
-173.70
-222.44
-254.57
-266.00
-257.22
-234.00
-206.00
-183.81
-175.41
-183.66
-205.46
-232.82
-255.64
-265.12
-256.77
-231.58
-195.16
-154.89
-116.61
-82.33
-50.27
-17.16
18.76
55.51
87.24
106.42
107.28
88.71
55.00
14.54
-23.08
-50.02
-62.43
-61.02
-50.23
-36.30
-24.73
-18.39
-16.94
-18.02
-19.32
-20.30
-22.56
-28.29
-38.14
-49.59
-57.28
-55.17
-39.50
-11.04
24.68
59.43
85.90
100.90
106.74
109.90
117.65
134.51
160.11
189.70
216.60
235.03
241.53
234.64
213.73
178.68
131.11
76.05
22.24
-19.91
-42.32
-43.09
-27.55
-6.27
9.06
9.82
-7.04
-38.69
-77.80
-114.45
-138.25
-140.49
-116.57
-67.95
-3.17
63.47
115.61
140.31
132.84
99.08
53.30
12.31
-11.82
-17.06
-11.35
-7.38
-14.96
-35.67
-63.04
-87.47
-102.61
-108.49
-110.03
-112.48
-117.89
-125.02
-132.23
-140.20
-151.74
-168.74
-189.13
-206.72
-214.97
-211.82
-202.24
-195.67
-200.11
-216.60
-237.92
-252.10
-248.48
-222.64
-178.26
-125.49
-77.03
-44.01
-32.55
-42.01
-65.53
-92.54
-112.64
-119.04
-110.39
-89.57
-61.40
-29.71
4.10
40.12
78.19
117.41
156.80
196.43
237.64
281.05
324.04
360.22
379.79
373.73
339.04
282.19
218.10
165.17
138.51
145.22
184.80
248.87
324.64
398.40
458.89
499.17
517.45
516.64
503.08
487.12
476.69
475.06
480.18
487.11
490.81
487.77
475.76
453.38
423.60
388.96
351.27
311.22
269.34
226.35
183.06
139.92
74.36
-21.86
-141.69
-264.66
-369.08
-442.70
-484.79
-501.57
-501.17
-490.44
-469.89
-440.14
-403.30
-364.38
-329.52
-303.81
-290.07
-289.07
-300.54
-320.51
-343.68
-364.06
-375.61
-372.31
-349.94
-308.30
-252.24
-190.53
-131.05
-79.88
-40.07
-11.90
6.47
17.36
22.60
23.76
22.83
23.55
29.71
43.07
61.37
79.08
88.07
80.36
52.17
6.03
-49.30
-102.26
-143.23
-170.21
-184.58
-190.79
-193.44
-194.06
-190.84
-180.35
-160.15
-128.21
-89.41
-49.42
-12.92
17.41
41.84
62.35
80.42
96.13
107.21
109.65
100.55
79.01
46.24
6.06
-36.78
-77.48
-111.30
-133.34
-139.36
-126.50
-93.31
-47.87
-2.11
33.02
51.95
56.26
52.62
48.30
47.74
50.73
53.56
53.59
50.87
47.73
46.95
49.66
54.67
59.74
63.02
63.33
61.64
59.93
59.71
61.33
63.92
65.25
63.16
56.27
44.22
28.24
10.38
-7.34
-23.32
-36.83
-47.86
-56.80
-64.17
-70.55
-76.16
-81.05
-85.30
-89.15
-93.08
-97.50
-102.19
-105.90
-106.48
-101.39
-88.88
-68.93
-43.50
-16.16
9.25
29.71
43.80
51.70
54.71
54.39
52.15
49.03
45.71
42.77
40.68
39.86
39.94
40.83
42.46
44.74
47.52
50.62
53.74
56.45
58.12
57.70
53.97
45.94
33.53
17.89
1.08
-14.81
-28.42
-39.55
-49.09
-58.13
-66.91
-74.49
-79.29
-80.10
-76.93
-70.80
-63.10
-55.05
-47.42
-40.10
-32.57
-23.93
-13.20
0.92
20.03
45.70
78.21
112.86
141.41
155.27
150.78
130.57
100.80
67.61
35.33
6.19
-19.09
-39.93
-55.79
-66.54
-73.10
-77.60
-82.44
-89.06
-97.45
-106.85
-114.26
-116.36
-110.75
-96.89
-75.79
-49.31
-19.05
13.98
48.09
81.61
113.56
143.63
171.51
195.75
213.12
218.84
208.10
178.78
133.86
81.23
31.19
-7.45
-30.61
-39.60
-39.35
-35.38
-31.17
-27.26
-22.59
-16.29
-8.84
-1.82
3.34
6.32
8.06
9.98
13.42
18.62
24.53
29.57
31.86
30.51
25.80
19.13
12.16
6.42
2.74
1.11
0.89
1.33
2.05
3.26
5.65
9.67
15.69
23.71
33.28
43.64
53.94
63.55
71.89
78.71
83.47
86.01
86.40
84.72
81.17
76.16
70.32
64.30
58.95
54.39
51.11
49.54
49.83
51.80
54.82
57.76
58.10
59.14
61.40
65.24
70.80
77.90
86.05
94.56
102.52
107.34
107.01
100.05
86.92
68.89
47.44
23.93
-0.44
-24.73
-51.64
-83.06
-119.13
-157.20
-193.83
-226.21
-252.61
-272.35
-285.82
-299.42
-318.23
-343.54
-371.91
-398.22
-418.01
-428.59
-428.89
-419.65
-409.77
-406.78
-413.52
-428.02
-447.62
-471.74
-501.42
-536.76
-533.00
-464.18
-334.26
-173.79
-16.45
116.20
215.23
280.71
318.74
338.49
342.21
331.55
309.88
282.81
255.99
233.51
217.72
209.50
208.09
206.26
198.24
182.77
163.28
144.67
130.39
121.51
117.22
115.27
109.98
97.55
78.39
56.38
36.41
21.86
13.44
10.36
10.82
11.53
10.82
9.73
10.86
16.74
28.55
45.87
67.11
89.59
108.94
118.97
116.00
98.83
70.10
35.89
3.82
-19.60
-31.56
-34.33
-33.30
-33.77
-38.73
-47.16
-54.60
-56.15
-49.71
-37.51
-25.63
-20.50
-26.08
-42.35
-65.33
-88.83
-107.28
-118.03
-121.11
-118.42
-110.81
-98.08
-79.51
-57.35
-33.85
-11.72
5.56
19.32
28.11
32.37
33.49
32.83
30.37
25.87
18.88
7.94
-6.19
-21.91
-36.33
-46.36
-49.16
-43.39
-32.54
-17.96
-1.98
15.80
35.73
57.83
80.81
102.65
119.25
129.78
134.90
134.67
133.24
135.16
143.72
160.09
184.22
213.52
249.73
294.71
323.64
315.94
262.03
167.90
49.16
-60.54
-157.93
-239.88
-300.97
-336.68
-343.14
-318.53
-268.47
-205.08
-141.93
-91.52
-56.60
-34.56
-21.45
-9.19
7.75
29.62
52.56
72.06
83.58
87.89
87.14
83.12
82.66
91.31
110.38
136.38
164.14
188.30
207.45
221.90
232.44
245.57
267.15
299.32
340.06
385.48
430.83
471.47
501.31
484.84
402.67
263.48
102.04
-43.62
-151.71
-219.42
-255.54
-272.43
-280.36
-280.34
-270.56
-251.29
-226.92
-203.76
-186.59
-177.16
-174.54
-176.36
-176.12
-168.84
-153.47
-132.87
-111.29
-91.85
-75.78
-63.06
-53.23
-43.57
-31.90
-18.40
-5.23
4.63
9.08
7.04
-1.76
-16.88
-36.13
-56.83
-77.51
-97.46
-115.54
-128.96
-133.67
-125.87
-104.30
-71.05
-31.89
5.68
35.33
54.10
62.70
64.08
61.52
57.83
55.05
54.45
55.93
57.57
55.17
43.87
21.01
-11.34
-46.65
-77.06
-96.76
-104.60
-102.72
-93.76
-78.09
-54.43
-22.90
11.34
37.83
45.32
28.72
-5.89
-43.25
-66.82
-68.17
-52.13
-32.53
-23.55
-30.44
-46.58
-58.70
-55.93
-37.04
-10.96
9.16
14.50
5.06
-11.51
-25.44
-30.56
-27.06
-19.12
-11.08
-4.52
1.61
8.13
13.43
13.00
2.10
-20.71
-50.71
-78.16
-92.22
-85.99
-60.29
-23.31
13.48
40.64
54.52
57.69
55.64
53.12
51.60
49.43
44.16
35.01
23.61
13.22
6.97
5.69
7.92
11.24
13.28
12.89
9.36
1.71
-11.41
-30.69
-54.79
-79.60
-99.09
-108.39
-106.05
-95.07
-81.26
-70.32
-65.27
-65.86
-69.86
-74.72
-79.81
-85.83
-93.73
-103.21
-112.41
-118.98
-121.40
-119.71
-114.99
-109.49
-105.07
-102.54
-101.25
-99.31
-94.34
-83.96
-70.28
-54.65
-38.55
-23.07
-8.63
5.10
19.09
34.36
51.68
71.17
92.91
116.43
141.22
167.00
193.76
221.77
251.28
282.41
315.09
349.69
386.62
426.38
468.95
513.24
556.75
595.74
626.15
644.68
649.56
640.32
617.24
580.71
531.18
469.59
397.97
319.88
240.10
163.56
94.12
33.51
-18.73
-64.82
-107.60
-149.45
-191.38
-232.58
-270.84
-303.90
-330.42
-351.03
-368.31
-385.55
-405.82
-431.02
-461.89
-498.30
-539.11
-581.42
-619.86
-647.36
-657.48
-647.68
-621.02
-585.06
-548.17
-515.20
-485.48
-454.12
-415.97
-369.35
-317.16
-264.85
-216.68
-173.05
-130.56
-84.46
-31.88
25.96
83.68
133.19
166.50
178.52
169.03
143.61
112.15
85.85
73.37
77.83
96.12
120.93
144.52
162.11
173.48
181.89
191.37
204.23
220.23
237.81
256.11
276.40
301.27
332.60
369.27
406.71
438.43
458.98
466.31
462.26
451.22
437.80
425.15
414.67
406.66
400.98
397.02
393.09
386.11
372.25
348.37
313.46
268.91
217.72
163.12
107.33
51.36
-4.28
-58.63
-109.70
-154.79
-191.60
-219.18
-238.38
-251.31
-260.31
-266.81
-270.97
-272.07
-269.28
-262.80
-254.29
-246.73
-243.81
-249.24
-266.19
-296.69
-340.70
-395.22
-454.00
-508.54
-550.41
-573.97
-578.18
-566.59
-545.36
-520.48
-495.53
-471.21
-446.49
-420.18
-392.03
-362.49
-331.89
-299.68
-264.53
-225.20
-181.54
-134.84
-87.51
-42.16
-0.36
37.90
74.36
111.85
153.24
200.05
251.31
303.20
350.02
385.99
407.47
414.38
410.13
400.23
390.29
384.19
383.44
387.55
394.96
403.90
413.01
421.45
428.80
434.88
439.60
442.78
444.17
443.34
439.70
432.77
422.20
407.84
389.87
368.50
343.96
316.28
285.28
250.84
213.20
173.17
132.03
91.15
51.29
12.40
-26.22
-65.29
-104.67
-143.25
-179.47
-212.21
-241.51
-268.83
-296.53
-327.07
-362.23
-402.40
-446.24
-490.73
-531.70
-564.81
-587.02
-597.52
-598.14
-592.77
-585.63
-579.60
-574.92
-569.07
-557.87
-537.42
-505.76
-463.81
-414.93
-363.53
-313.62
-267.51
-225.66
-187.23
-151.00
-116.03
-81.82
-48.24
-15.14
17.38
48.89
78.73
106.17
130.98
153.92
176.76
201.71
230.58
263.69
299.44
334.60
365.07
387.16
398.61
399.01
389.46
372.08
349.25
323.05
295.02
265.96
235.86
203.84
168.72
129.82
87.93
45.70
7.07
-23.97
-45.07
-56.18
-59.26
-57.28
-52.91
-48.04
-43.93
-41.69
-42.26
-46.07
-52.63
-60.70
-68.91
-76.38
-82.96
-88.93
-94.27
-98.25
-99.86
-98.29
-93.28
-84.79
-72.19
-53.71
-27.14
8.67
52.02
97.83
139.00
168.91
183.97
184.84
175.53
161.13
145.61
130.60
115.78
100.25
84.03
68.35
55.16
45.91
40.79
38.80
38.49
38.92
40.02
42.32
46.24
51.63
57.69
63.24
67.33
69.46
69.62
68.09
65.42
62.47
60.26
59.74
61.36
64.76
68.86
72.31
74.19
74.28
73.00
70.83
67.95
63.97
58.22
50.10
39.45
26.56
12.16
-2.86
-17.70
-31.79
-44.88
-56.90
-67.85
-77.48
-85.20
-90.07
-91.16
-88.03
-81.23
-72.46
-64.29
-59.37
-59.42
-64.53
-73.06
-82.23
-89.27
-92.41
-91.35
-87.06
-81.17
-75.12
-69.78
-65.41
-61.61
-57.45
-51.43
-41.83
-27.43
-8.62
12.08
30.44
42.22
45.23
40.48
31.86
24.20
21.05
23.35
29.64
37.16
43.27
46.53
46.90
45.55
44.29
44.99
48.84
55.90
64.95
73.90
80.59
83.45
81.56
74.29
61.20
42.54
19.95
-3.19
-22.69
-35.25
-39.95
-38.49
-33.76
-27.91
-21.61
-14.80
-8.26
-4.78
-8.35
-21.82
-44.64
-71.99
-96.52
-111.24
-112.54
-101.28
-81.91
-60.05
-39.69
-21.71
-3.86
17.82
46.65
83.43
125.99
169.79
209.39
239.98
258.16
262.65
254.99
239.52
222.53
210.32
206.62
211.23
220.32
228.51
231.42
227.05
215.71
199.22
179.91
160.51
143.91
133.03
129.31
131.36
134.68
133.07
121.49
98.31
65.67
27.84
-11.10
-48.93
-84.80
-117.58
-144.86
-162.83
-168.04
-159.48
-139.87
-114.87
-90.54
-70.35
-53.63
-36.80
-16.72
5.72
24.75
32.09
21.50
-7.31
-48.24
-92.16
-131.91
-165.02
-193.10
-218.45
-240.92
-257.79
-266.39
-267.45
-265.72
-267.24
-274.87
-285.84
-293.03
-289.41
-272.81
-247.20
-220.26
-198.72
-185.23
-178.38
-175.48
-175.43
-178.90
-186.17
-194.60
-198.56
-192.18
-173.16
-144.75
-113.95
-87.36
-67.24
-51.23
-35.20
-17.22
0.73
14.64
22.40
26.50
32.90
46.74
67.77
89.49
102.96
102.87
91.56
77.74
70.79
74.38
84.21
91.11
87.70
73.54
55.21
41.78
38.61
44.11
51.25
52.81
46.11
34.31
23.74
19.45
22.34
29.30
35.68
37.95
34.97
27.57
17.45
6.60
-2.63
-7.42
-5.44
3.89
18.20
32.65
41.99
43.21
36.88
26.53
16.57
10.14
8.37
11.30
18.76
30.50
45.20
59.59
68.93
69.08
59.21
42.77
26.37
16.37
15.35
20.58
25.16
21.69
6.12
-19.98
-49.93
-74.90
-87.90
-86.61
-73.75
-55.30
-37.47
-24.36
-17.39
-16.16
-19.78
-27.36
-37.30
-46.57
-51.35
-48.63
-38.38
-24.09
-10.99
-3.25
-1.63
-3.40
-4.33
-1.41
5.59
14.49
22.24
26.83
27.72
25.68
21.68
16.30
9.80
2.64
-4.03
-8.46
-8.81
-4.02
5.53
17.53
28.21
33.32
29.64
16.30
-4.26
-26.70
-44.47
-52.09
-47.42
-32.36
-11.74
9.06
26.41
39.28
48.45
55.00
59.43
61.91
63.28
65.85
72.63
85.82
105.08
127.39
148.52
165.21
176.96
186.13
196.57
211.58
232.65
259.05
288.42
317.62
343.58
363.76
376.53
381.29
378.43
369.19
354.96
336.69
314.31
286.54
251.47
207.51
154.26
92.87
25.82
-43.75
-112.98
-179.66
-242.28
-299.44
-349.41
-390.22
-420.24
-439.01
-447.73
-449.06
-446.46
-443.71
-444.49
-452.07
-468.31
-492.62
-521.00
-546.57
-561.41
-559.59
-539.53
-504.73
-462.16
-419.23
-380.96
-348.75
-321.17
-295.71
-270.38
-244.25
-217.06
-188.46
-157.69
-123.78
-86.06
-44.59
-0.22
45.50
90.81
134.34
175.69
215.76
256.57
299.96
345.76
390.54
428.24
452.31
458.77
447.82
423.21
389.54
349.62
303.86
252.17
196.47
141.59
93.65
56.86
30.94
11.13
-8.96
-33.27
-60.67
-85.34
-99.39
-96.30
-73.27
-31.65
24.08
87.94
153.81
216.59
272.49
319.32
355.67
380.36
392.04
389.78
373.64
345.18
307.49
264.88
222.65
186.25
160.08
146.19
142.94
144.98
144.67
134.61
110.39
72.15
24.44
-24.77
-65.86
-89.26
-87.45
-57.18
-1.34
70.43
143.61
203.04
237.82
244.60
227.35
194.52
154.80
114.04
74.56
36.50
-0.50
-36.49
-71.49
-106.41
-143.00
-183.46
-228.86
-277.44
-323.99
-360.88
-380.84
-380.20
-360.84
-329.81
-296.61
-269.45
-252.27
-243.75
-238.87
-231.91
-219.62
-202.68
-184.75
-169.86
-160.16
-155.22
-153.68
-155.34
-161.67
-174.26
-192.13
-209.97
-219.74
-215.24
-196.72
-172.39
-154.39
-152.02
-166.47
-190.69
-214.30
-229.96
-236.77
-238.67
-239.97
-241.69
-240.92
-234.15
-220.78
-204.10
-189.41
-180.60
-177.66
-177.01
-173.62
-162.72
-142.02
-111.84
-74.46
-33.13
8.96
49.70
88.31
125.07
161.77
199.49
237.75
274.52
307.17
333.74
353.88
368.39
378.29
385.68
391.97
398.05
404.51
412.27
423.15
439.74
464.68
489.04
504.13
503.13
483.87
448.20
398.10
333.76
254.95
164.08
67.90
-22.03
-94.60
-143.41
-168.63
-176.10
-173.13
-164.72
-152.37
-135.56
-113.00
-85.69
-57.28
-32.20
-14.27
-4.92
-2.69
-4.42
-7.56
-11.01
-16.42
-27.56
-46.72
-74.60
-108.51
-142.32
-168.72
-182.01
-180.29
-166.86
-151.23
-140.93
-142.28
-157.52
-183.75
-213.65
-237.58
-245.72
-231.22
-192.84
-135.73
-71.64
-15.30
20.51
29.64
15.55
-9.96
-32.34
-41.21
-34.86
-21.56
-14.60
-25.23
-56.71
-103.54
-152.10
-185.89
-192.45
-168.90
-123.61
-72.74
-33.11
-15.28
-19.12
-34.51
-46.45
-41.87
-15.02
30.08
81.76
125.70
150.40
151.37
132.41
103.25
75.08
55.98
48.37
49.92
56.76
67.14
83.21
109.12
146.43
190.67
231.92
259.39
267.11
256.88
236.12
212.25
188.20
161.67
129.13
90.60
51.80
21.50
6.49
7.76
20.86
39.83
61.52
86.79
117.68
153.14
186.38
206.18
201.14
165.19
100.98
19.83
-61.43
-125.21
-157.31
-150.32
-105.43
-32.23
53.27
132.81
190.27
215.73
208.23
176.13
134.81
101.92
91.31
108.00
146.23
192.14
229.46
246.17
238.24
208.93
164.82
111.23
50.54
-16.52
-87.92
-158.72
-222.38
-274.05
-312.56
-339.81
-357.66
-365.76
-361.60
-343.58
-314.75
-283.38
-259.66
-249.73
-251.87
-257.45
-256.09
-241.90
-215.86
-183.17
-147.52
-107.48
-57.96
5.19
79.74
155.51
217.96
255.02
263.19
249.03
225.84
207.02
200.36
205.64
216.18
222.76
217.90
198.19
164.82
122.07
74.66
25.95
-22.83
-72.31
-123.53
-176.18
-228.19
-275.90
-314.71
-340.43
-351.22
-348.89
-338.96
-328.65
-323.67
-324.87
-327.42
-323.29
-306.03
-274.96
-235.67
-196.37
-162.62
-134.10
-105.98
-73.91
-38.80
-7.43
11.68
14.47
4.95
-6.52
-8.79
4.52
33.08
71.67
114.10
155.48
191.84
218.65
230.55
223.92
199.50
163.73
127.02
99.83
89.03
96.30
119.13
153.18
193.97
237.17
277.97
310.79
330.07
331.81
314.89
280.92
233.55
177.95
120.34
67.64
26.46
0.55
-11.43
-16.15
-22.96
-39.30
-66.55
-99.40
-129.17
-149.35
-159.85
-166.54
-176.41
-192.12
-209.22
-218.56
-211.79
-186.45
-147.27
-103.58
-64.82
-36.74
-19.89
-10.84
-4.68
2.77
13.48
26.79
40.20
51.37
60.15
69.13
82.19
101.36
123.75
141.14
142.85
120.98
74.95
12.72
-52.05
-105.06
-135.81
-140.17
-120.58
-84.79
-43.75
-8.76
11.98
16.55
10.70
5.56
11.92
33.90
66.20
96.86
114.44
115.12
104.48
93.32
90.12
95.98
105.34
111.64
113.00
113.58
119.86
135.18
156.90
178.62
194.97
205.56
214.53
226.37
241.86
257.15
266.88
268.63
264.74
260.39
259.36
260.78
259.41
249.08
226.61
193.75
155.78
118.42
84.40
52.78
20.09
-17.36
-61.46
-111.39
-163.79
-213.65
-255.61
-285.56
-302.07
-307.68
-308.75
-313.79
-330.94
-364.88
-414.94
-474.81
-534.47
-583.13
-612.62
-619.31
-604.15
-571.56
-527.75
-479.84
-435.15
-400.41
-380.16
-375.14
-381.05
-389.03
-388.80
-372.68
-338.85
-291.70
-239.11
-188.19
-142.12
-99.66
-57.31
-12.42
35.34
83.78
129.58
169.76
202.23
226.05
241.38
249.64
253.29
255.92
261.08
270.89
284.82
299.31
309.29
310.76
303.28
290.66
279.46
275.53
280.61
291.36
301.36
305.36
302.98
299.09
300.18
309.28
322.55
330.55
323.87
299.02
261.12
221.64
192.68
181.11
186.37
201.83
218.50
228.63
227.64
214.64
192.04
164.79
138.70
118.19
103.90
91.68
74.36
45.46
3.21
-47.88
-99.27
-142.97
-175.71
-200.42
-223.98
-253.25
-291.85
-339.24
-392.37
-448.10
-504.12
-558.34
-607.62
-646.80
-669.53
-670.51
-647.91
-604.36
-546.13
-481.06
-416.26
-356.58
-304.09
-258.51
-218.37
-182.21
-149.53
-120.78
-96.60
-76.75
-59.70
-43.30
-26.23
-9.09
6.24
18.36
28.11
38.46
52.50
70.81
90.47
106.74
116.47
120.69
124.23
133.00
150.67
177.41
210.90
248.16
286.54
322.75
351.74
367.21
364.16
341.89
305.05
261.74
219.90
184.55
157.61
139.69
131.61
134.02
145.48
160.63
171.00
168.41
149.12
116.04
77.74
44.41
23.47
16.85
20.74
27.45
27.90
14.69
-15.20
-59.35
-110.87
-161.38
-204.68
-238.72
-264.67
-283.92
-295.35
-294.76
-277.28
-241.07
-189.63
-131.32
-75.77
-29.74
5.48
33.83
61.96
95.67
137.09
183.65
228.74
263.88
282.04
280.34
261.33
231.72
199.26
169.37
143.37
119.23
94.47
69.00
46.08
30.80
27.00
34.61
49.13
63.55
71.49
69.71
58.84
42.11
22.95
2.92
-18.53
-42.50
-68.62
-93.86
-113.29
-122.49
-120.19
-109.24
-95.42
-84.37
-78.42
-75.35
-69.83
-56.63
-33.69
-3.66
26.97
50.37
60.26
54.44
35.85
11.95
-7.78
-15.26
-6.93
15.02
43.83
71.20
90.38
98.23
95.21
83.87
67.35
48.42
29.75
14.25
4.88
3.71
10.61
22.81
35.72
44.47
45.52
37.99
23.99
8.15
-3.94
-8.13
-3.85
5.42
13.81
16.21
11.16
1.69
-6.52
-8.55
-2.97
7.53
18.02
24.06
23.83
18.46
10.69
3.36
-1.73
-4.11
-4.54
-4.73
-6.81
-12.14
-20.16
-28.24
-32.74
-31.27
-24.55
-16.45
-11.82
-13.36
-19.68
-25.91
-26.74
-19.91
-7.76
4.22
10.72
9.76
3.52
-3.51
-7.49
-7.30
-4.52
-1.62
0.04
0.92
2.46
5.51
9.44
12.56
13.43
12.01
9.64
8.09
8.27
9.60
10.54
9.74
7.05
3.66
1.38
1.41
3.48
5.98
6.88
4.95
0.45
-5.21
-10.38
-14.07
-16.35
-17.94
-19.41
-20.82
-21.84
-22.19
-22.01
-21.79
-21.81
-21.79
-20.89
-18.18
-13.27
-6.60
0.64
6.97
11.05
12.13
10.26
6.31
1.75
-2.05
-4.48
-5.98
-7.63
-10.19
-13.15
-14.66
-12.53
-5.75
4.50
15.22
23.08
26.32
25.75
24.19
24.65
28.51
34.84
41.11
44.86
45.06
42.44
38.69
35.18
32.28
29.40
25.78
21.28
16.52
12.51
10.06
9.33
9.80
10.54
10.62
9.43
6.81
3.11
-0.84
-3.79
-4.54
-2.38
2.45
8.71
14.55
18.20
18.50
15.23
8.96
0.76
-8.07
-16.04
-21.75
-24.10
-22.74
-18.30
-12.31
-6.67
-2.86
-1.29
-1.30
-1.69
-1.45
-0.30
1.41
3.22
4.98
7.05
10.01
14.14
18.96
23.19
25.26
24.27
20.65
16.24
13.62
14.91
20.71
29.71
39.14
45.92
48.09
45.69
40.57
35.48
32.65
32.81
35.01
37.21
37.63
35.93
33.61
33.21
36.92
45.02
55.64
65.64
72.01
73.53
71.39
68.92
70.08
77.79
92.72
113.16
136.01
157.34
173.91
184.20
188.74
189.38
187.82
184.00
175.81
160.11
133.39
93.51
40.42
-23.48
-94.07
-166.14
-233.84
-290.61
-329.85
-348.32
-347.88
-336.26
-324.59
-323.41
-339.25
-373.07
-420.71
-466.33
-492.80
-488.07
-452.51
-396.92
-332.87
-264.31
-187.97
-99.17
1.46
103.43
189.67
242.75
253.30
224.40
170.97
113.96
72.75
59.32
70.90
95.96
119.50
130.22
125.50
111.96
101.23
103.70
123.11
154.33
185.43
202.88
198.04
170.87
129.78
87.77
57.13
43.57
48.09
65.40
84.97
95.06
87.15
58.69
13.04
-43.19
-102.68
-158.98
-207.00
-242.52
-262.52
-266.48
-257.36
-240.87
-222.60
-204.62
-183.58
-153.04
-107.84
-48.22
18.94
82.76
132.94
163.65
174.75
169.84
152.84
126.26
91.51
51.02
9.31
-27.06
-51.41
-59.46
-50.91
-29.79
-2.36
25.16
49.26
69.02
85.43
100.06
113.87
126.64
137.12
143.94
145.72
143.27
138.34
133.60
131.80
134.63
141.79
150.75
157.61
157.69
149.49
133.14
110.85
85.90
61.30
38.96
19.54
2.93
-12.43
-26.26
-39.87
-55.34
-75.04
-100.68
-132.24
-167.49
-195.62
-220.30
-238.07
-248.78
-253.83
-254.69
-251.53
-242.95
-226.84
-201.93
-170.25
-133.90
-96.97
-62.97
-33.69
-9.25
10.96
27.14
38.70
43.93
43.72
39.98
36.24
36.30
42.63
55.45
72.87
91.96
109.53
124.45
136.01
143.71
146.85
144.66
137.14
125.59
112.52
100.31
90.73
83.38
76.22
66.91
54.21
38.85
23.17
9.88
0.71
-3.92
-4.91
-3.62
-1.10
2.09
5.80
10.03
14.82
20.33
26.73
34.06
41.98
49.77
56.55
61.64
64.66
65.39
63.57
58.74
50.72
39.97
27.71
15.45
4.11
-6.59
-17.98
-31.33
-46.58
-61.68
-73.19
-77.92
-74.67
-64.88
-51.82
-38.92
-27.95
-18.48
-8.64
3.47
18.69
36.75
56.96
78.88
102.33
126.55
149.44
167.58
177.38
176.83
166.83
150.96
134.06
120.32
111.79
108.33
108.51
110.72
113.86
117.31
120.49
122.55
122.54
119.31
112.50
102.80
91.88
81.89
74.81
71.99
73.93
79.96
88.10
96.13
102.47
106.57
108.91
110.16
110.27
108.05
100.94
85.16
58.24
20.43
-25.15
-73.63
-120.27
-161.75
-196.61
-225.42
-252.17
-279.98
-309.42
-338.78
-365.71
-388.86
-407.79
-421.56
-428.87
-432.09
-431.56
-425.77
-413.47
-396.73
-381.36
-373.81
-376.63
-388.94
-414.38
-453.30
-502.42
-555.83
-608.16
-656.15
-697.62
-729.55
-751.71
-776.01
-812.25
-862.54
-919.37
-970.08
-1002.70
-1009.29
-986.57
-875.96
-660.77
-371.98
-73.77
177.98
361.06
481.51
548.59
586.00
606.90
607.80
587.02
550.64
511.87
484.10
473.31
478.36
495.25
517.11
531.31
531.26
518.86
502.71
492.14
492.39
503.82
524.06
546.88
560.54
556.20
530.86
487.99
434.57
377.57
322.36
272.73
229.43
189.64
151.17
113.75
79.04
48.84
23.67
2.92
-14.17
-28.47
-41.13
-52.50
-62.15
-69.15
-72.57
-71.97
-67.49
-59.99
-51.29
-43.47
-38.02
-34.88
-32.53
-28.72
-21.94
-12.34
-1.75
7.64
14.83
20.77
27.74
37.48
49.85
62.63
73.03
79.71
83.83
88.51
96.78
109.73
125.75
141.58
154.19
162.29
166.74
169.59
172.93
177.76
183.62
188.56
189.39
182.26
163.42
130.51
83.61
25.68
-38.05
-101.57
-159.93
-210.45
-252.94
-289.16
-321.87
-353.86
-386.71
-419.78
-449.49
-469.72
-473.68
-456.61
-418.21
-363.28
-300.19
-237.82
-182.67
-137.53
-101.99
-74.35
-53.17
-37.83
-27.76
-21.44
-15.95
-7.52
7.19
30.15
61.56
99.84
142.29
185.55
225.90
259.63
283.56
295.69
295.80
285.70
268.67
248.52
228.25
209.28
191.40
173.48
154.48
134.23
113.59
94.00
76.83
62.79
51.88
43.74
38.07
34.68
33.25
33.04
32.62
30.39
25.24
17.35
8.50
1.52
-0.77
3.08
12.47
24.66
35.82
42.34
42.17
35.43
24.19
11.57
0.45
-7.58
-12.65
-16.22
-20.25
-26.22
-34.54
-44.44
-54.41
-62.74
-68.10
-69.81
-67.91
-62.95
-55.90
-47.85
-39.95
-33.21
-28.47
-26.15
-26.23
-28.23
-31.24
-34.18
-36.05
-36.15
-34.44
-31.42
-27.96
-24.81
-22.31
-20.26
-18.19
-15.75
-13.01
-10.52
-8.94
-8.61
-9.16
-9.72
-9.31
-7.30
-3.83
0.49
4.91
9.05
13.06
17.33
22.00
26.67
30.48
32.56
32.58
31.01
28.88
27.23
26.60
26.98
28.21
30.54
34.80
42.14
53.22
67.44
82.83
96.61
106.24
110.48
109.74
105.62
100.03
94.35
88.87
83.19
76.72
69.21
60.95
52.46
44.21
36.24
28.25
19.73
10.44
0.63
-8.86
-16.88
-22.35
-24.70
-24.08
-21.36
-17.70
-14.20
-11.56
-9.94
-9.07
-8.54
-8.06
-7.52
-7.08
-6.89
-7.14
-7.89
-9.05
-10.36
-11.50
-12.19
-12.26
-11.67
-10.60
-9.40
-8.55
-8.62
-10.03
-13.01
-17.37
-22.54
-27.65
-31.81
-34.37
-35.03
-33.84
-31.03
-26.80
-21.33
-14.75
-7.28
0.73
8.83
16.54
23.45
29.10
33.00
34.68
33.76
30.07
23.72
14.92
3.71
-10.10
-26.84
-46.50
-68.25
-90.22
-109.86
-124.63
-132.85
-134.21
-129.92
-122.31
-114.30
-108.64
-107.31
-110.99
-118.64
-127.64
-134.43
-135.49
-128.54
-113.18
-90.70
-63.37
-33.46
-2.51
28.69
59.73
90.07
118.83
144.91
167.22
184.75
196.68
202.39
201.50
194.08
180.68
162.15
139.46
113.64
85.92
58.04
32.32
11.14
-4.10
-13.82
-20.58
-28.00
-39.01
-54.40
-72.80
-91.91
-110.46
-129.11
-149.94
-174.78
-203.43
-233.25
-260.18
-280.71
-293.37
-298.98
-299.29
-295.38
-286.87
-272.34
-250.67
-221.94
-187.51
-149.17
-108.25
-65.16
-19.88
26.94
73.54
117.25
155.35
186.47
211.28
232.34
252.98
275.56
299.93
322.98
339.46
343.90
333.13
307.95
273.23
236.14
203.41
178.76
161.98
149.52
136.37
118.26
93.03
61.02
24.60
-12.68
-47.20
-76.21
-98.38
-114.04
-124.66
-132.20
-138.63
-145.41
-153.77
-164.68
-178.81
-196.18
-215.81
-235.77
-253.76
-267.92
-277.27
-281.74
-281.89
-278.33
-271.32
-260.72
-245.98
-226.65
-202.83
-175.41
-146.10
-116.72
-88.32
-60.63
-32.19
-1.19
33.13
69.75
106.05
138.97
166.42
188.42
206.77
223.89
241.18
258.12
272.30
280.62
280.78
272.51
257.72
239.73
221.70
205.46
191.04
177.26
162.92
147.84
133.02
119.96
109.58
101.59
94.65
87.15
78.15
67.78
57.14
47.69
40.49
35.94
33.75
33.28
33.88
35.09
36.54
37.98
39.15
39.89
40.21
40.14
39.60
38.21
35.52
31.12
25.16
18.35
11.73
6.24
2.20
-0.83
-3.77
-7.57
-12.72
-18.99
-25.61
-31.61
-36.17
-38.83
-39.49
-38.35
-35.98
-33.20
-31.01
-30.34
-31.77
-35.16
-39.56
-43.38
-44.96
-43.19
-37.80
-29.48
-19.35
-8.65
1.65
10.82
18.25
23.31
25.57
25.22
23.23
21.21
20.77
22.86
27.33
33.11
38.70
42.70
44.11
42.24
36.64
27.17
14.02
-2.11
-20.27
-39.53
-59.35
-79.83
-101.69
-126.26
-154.98
-188.73
-226.41
-263.83
-293.61
-306.87
-296.06
-258.06
-195.91
-118.56
-38.71
30.59
78.99
101.01
96.27
68.81
26.05
-22.56
-67.13
-98.80
-111.30
-101.96
-71.33
-23.02
37.63
104.90
173.51
238.41
294.24
335.02
354.60
349.39
319.75
271.74
217.39
172.42
151.61
163.84
208.64
276.11
351.53
418.95
465.96
486.77
482.36
457.91
419.54
371.91
317.87
260.93
203.97
148.98
96.81
46.99
-2.00
-52.05
-104.10
-165.00
-231.01
-291.28
-333.77
-351.86
-347.00
-326.06
-297.08
-266.34
-237.32
-210.00
-182.95
-156.27
-131.47
-110.77
-96.29
-89.83
-92.59
-104.82
-124.28
-146.66
-167.09
-181.30
-187.30
-186.42
-183.06
-182.50
-188.20
-199.09
-211.09
-219.70
-222.43
-219.99
-215.37
-211.64
-209.77
-207.78
-201.71
-188.40
-167.74
-142.57
-117.30
-95.65
-79.27
-67.83
-60.33
-56.37
-56.62
-62.23
-73.09
-86.85
-99.13
-105.16
-101.93
-89.61
-71.23
-51.07
-32.54
-16.64
-1.89
