1674546603.00
64.000000
-0.00
-0.00
-0.00
-0.00
-0.00
-0.00
-0.00
-0.00
-0.00
-0.00
0.00
0.01
0.01
-0.00
-0.03
-0.05
-0.05
0.00
0.13
0.36
0.66
1.01
1.37
1.72
2.06
2.40
2.79
3.24
3.80
4.42
5.06
5.66
6.20
6.68
7.15
7.68
8.31
9.14
10.09
11.04
11.88
12.56
13.14
13.76
14.65
15.96
17.91
20.32
22.90
25.38
27.58
29.57
31.68
34.32
37.81
42.54
48.14
54.10
59.83
64.97
69.58
74.14
79.35
85.73
93.81
103.08
112.75
121.93
130.04
137.13
143.79
151.35
158.51
167.52
178.96
192.93
208.24
221.94
229.72
226.92
210.16
178.55
134.49
81.82
24.89
-33.05
-90.46
-147.06
-202.98
-257.93
-311.07
-360.93
-406.56
-447.27
-482.44
-511.19
-532.15
-543.55
-543.64
-531.34
-506.42
-470.07
-424.40
-372.03
-315.61
-257.38
-199.08
-141.97
-87.10
-35.33
12.33
55.05
92.16
123.39
148.87
169.11
184.81
196.69
205.33
211.13
214.36
215.17
213.67
209.93
203.96
195.72
185.08
171.80
155.73
136.73
114.89
90.49
64.07
36.40
8.45
-18.65
-43.79
-65.76
-83.35
-95.55
-101.64
-101.31
-94.75
-82.65
-65.52
-44.93
-22.74
-0.77
19.44
36.77
50.56
60.63
67.17
70.66
71.63
70.76
68.70
65.94
62.82
59.56
56.30
53.16
50.22
47.48
44.97
42.72
40.68
38.75
36.90
35.13
33.55
32.31
31.51
31.20
31.28
31.54
31.67
31.45
30.89
30.31
30.09
30.63
32.10
34.26
36.55
38.31
39.09
38.98
38.60
38.72
40.05
42.72
46.06
48.67
49.08
46.26
40.10
31.53
21.73
11.72
1.87
-8.37
-19.96
-33.61
-49.30
-66.46
-83.65
-100.57
-116.44
-129.29
-135.78
-131.96
-115.04
-85.20
-46.73
-5.76
30.80
58.03
74.16
80.50
79.89
75.44
69.67
64.51
61.76
62.92
69.14
80.26
93.85
105.12
108.08
97.40
70.87
31.05
-15.53
-60.39
-96.48
-120.88
-135.61
-146.01
-157.47
-172.02
-186.84
-195.58
-191.44
-170.97
-136.22
-94.19
-53.95
-22.98
-4.49
3.12
4.04
2.25
-0.66
-5.65
-14.58
-28.11
-44.58
-60.62
-72.91
-80.06
-83.43
-86.32
-92.51
-104.15
-120.68
-139.03
-154.74
-163.76
-163.96
-155.64
-140.97
-122.69
-102.34
-79.55
-52.48
-18.82
23.00
73.13
130.34
192.18
254.86
312.39
357.44
382.51
382.42
356.81
311.13
255.22
199.82
152.79
116.86
90.42
69.34
50.14
31.44
13.54
-2.82
-18.00
-33.14
-49.23
-66.00
-81.78
-93.94
-99.88
-98.28
-89.50
-75.61
-59.39
-43.40
-29.22
-17.23
-6.88
2.67
11.84
20.57
27.98
33.15
35.57
35.42
33.54
31.12
29.23
28.42
28.62
29.06
28.85
27.17
23.65
18.36
11.82
4.62
-2.76
-9.95
-17.01
-23.90
-30.38
-35.89
-39.57
-40.47
-37.85
-31.46
-21.83
-10.25
1.76
12.89
22.33
30.07
36.71
43.12
49.80
56.65
62.78
67.13
68.85
67.77
64.48
60.15
55.77
51.75
47.56
41.83
33.04
20.04
2.19
-20.64
-47.84
-77.41
-105.55
-126.21
-134.14
-126.47
-104.40
-73.44
-41.45
-15.52
0.69
7.60
8.69
7.67
6.81
6.39
5.60
3.93
1.95
0.95
2.04
5.32
9.60
13.27
14.93
14.18
11.76
9.07
7.55
7.96
10.18
13.20
15.78
16.96
16.48
14.78
12.77
11.33
10.94
11.53
12.51
13.18
12.97
11.73
9.65
7.19
4.76
2.61
0.69
-1.26
-3.60
-6.57
-10.30
-14.73
-19.73
-25.15
-30.88
-36.90
-43.30
-50.18
-57.67
-65.92
-75.03
-85.05
-96.01
-107.86
-120.52
-133.88
-147.75
-161.88
-175.91
-189.43
-201.81
-212.31
-220.01
-223.95
-223.22
-217.38
-205.99
-188.93
-166.42
-139.02
-107.56
-73.14
-37.09
-0.98
33.47
64.50
90.52
110.36
123.55
130.47
132.20
130.23
126.06
120.90
115.54
110.38
105.72
102.11
100.38
101.56
106.57
115.64
128.17
142.70
157.32
170.14
179.87
186.08
189.06
189.85
189.95
191.11
194.86
201.53
209.39
214.35
211.03
194.66
163.56
120.26
70.99
23.31
-16.72
-46.22
-65.42
-75.78
-78.34
-72.92
-59.38
-39.27
-17.00
0.98
8.55
2.37
-16.46
-42.89
-69.71
-90.21
-99.93
-97.44
-84.17
-63.56
-40.20
-19.01
-4.45
0.63
-4.09
-15.85
-29.27
-38.45
-39.17
-31.18
-18.52
-8.17
-7.01
-18.64
-41.53
-69.14
-92.68
-104.51
-101.33
-85.33
-63.09
-42.56
-29.54
-25.69
-28.16
-31.77
-31.69
-25.87
-15.59
-4.23
4.77
9.79
11.40
11.66
12.50
14.53
16.48
15.76
9.87
-2.50
-20.43
-40.80
-58.96
-70.21
-71.12
-60.69
-40.80
-15.77
8.47
25.87
31.68
23.84
3.72
-23.99
-52.14
-72.92
-79.40
-67.43
-36.75
8.38
59.68
106.40
138.11
148.04
135.28
105.45
68.37
34.24
9.78
-3.81
-9.83
-13.32
-17.98
-24.84
-32.75
-40.33
-47.76
-56.81
-69.53
-86.36
-105.14
-121.71
-132.03
-133.92
-127.90
-116.45
-102.12
-85.80
-66.22
-40.79
-7.32
34.29
81.60
130.19
174.99
211.72
237.62
251.69
254.16
247.09
232.00
209.82
181.27
147.16
108.83
68.27
27.86
-9.99
-43.32
-71.05
-92.85
-108.71
-118.95
-124.02
-124.45
-120.98
-114.54
-106.27
-97.53
-89.54
-83.11
-78.66
-75.93
-74.20
-72.39
-69.45
-64.49
-56.96
-46.61
-33.21
-17.05
1.41
21.55
42.53
63.39
83.19
101.16
116.88
130.39
141.72
151.24
159.35
166.10
170.92
172.78
170.38
162.54
149.75
131.96
109.75
84.41
57.56
30.50
4.02
-21.41
-45.55
-68.06
-88.82
-107.40
-122.91
-133.97
-139.64
-139.44
-133.60
-123.64
-110.32
-95.39
-80.31
-65.23
-47.67
-25.89
0.49
29.46
54.91
70.00
68.12
44.96
1.05
-57.34
-120.40
-177.02
-215.79
-229.84
-218.67
-188.07
-147.82
-111.69
-87.63
-79.47
-86.95
-106.27
-129.84
-148.92
-154.09
-139.39
-103.83
-50.79
12.80
79.64
143.87
201.32
249.00
284.46
305.91
313.12
308.19
294.46
276.12
256.68
238.26
222.41
207.21
189.40
166.20
136.09
98.33
53.10
1.79
-52.44
-104.57
-145.72
-168.44
-169.59
-151.97
-123.41
-93.40
-69.26
-53.83
-45.78
-41.83
-39.46
-37.87
-37.47
-38.66
-40.81
-42.22
-41.19
-37.03
-30.61
-23.98
-19.43
-18.26
-20.40
-24.52
-28.82
-31.84
-33.06
-33.04
-33.14
-34.69
-38.50
-44.58
-52.27
-60.69
-69.20
-77.58
-86.07
-95.20
-105.27
-116.42
-128.66
-141.93
-156.30
-171.98
-189.22
-207.95
-227.82
-247.84
-266.99
-284.41
-299.53
-311.95
-321.13
-325.92
-324.19
-313.83
-291.44
-254.16
-200.89
-132.74
-52.97
33.91
123.00
210.19
291.79
365.29
429.04
482.21
525.06
558.22
581.50
592.69
587.77
562.50
515.78
452.41
381.33
313.77
259.57
223.84
205.79
200.77
201.75
202.59
198.98
188.09
168.27
138.83
100.29
54.15
4.34
-44.89
-89.86
-128.14
-159.07
-183.29
-202.39
-218.31
-232.46
-245.28
-256.75
-266.43
-274.08
-280.12
-285.50
-291.32
-298.30
-306.54
-315.26
-323.65
-331.08
-337.30
-342.48
-346.68
-349.31
-348.74
-342.59
-328.01
-302.79
-266.13
-218.80
-162.77
-100.60
-34.59
33.67
103.17
173.26
243.27
312.08
378.36
439.80
492.12
528.93
543.03
529.07
486.53
421.04
343.29
265.61
197.74
144.48
105.09
75.95
53.44
35.65
22.20
12.90
6.73
1.70
-4.35
-12.51
-22.25
-31.84
-39.18
-42.99
-43.38
-41.67
-39.78
-39.31
-40.92
-44.09
-47.47
-49.61
-49.62
-47.55
-44.21
-40.79
-38.30
-37.17
-37.12
-37.41
-37.21
-36.01
-33.80
-30.96
-28.09
-25.68
-23.95
-22.80
-21.90
-20.92
-19.63
-18.02
-16.23
-14.48
-12.94
-11.71
-10.78
-10.06
-9.46
-8.92
-8.42
-7.94
-7.50
-7.09
-6.73
-6.39
-6.08
-5.79
-5.51
-5.26
-5.02
-4.80
-4.58
-4.38
-4.20
-4.02
-3.85
-3.69
-3.54
-3.40
-3.27
-3.14
-3.02
-2.90
-2.79
-2.70
-2.59
-2.50
-2.41
-2.32
-2.24
-2.17
-2.09
-2.02
-1.96
-1.89
-1.82
-1.77
-1.71
-1.66
-1.60
-1.55
-1.51
-1.46
-1.41
-1.37
-1.33
-1.30
-1.26
-1.22
-1.18
-1.15
-1.12
-1.09
-1.06
-1.03
-1.00
-0.97
-0.95
-0.91
-0.89
-0.84
-0.80
-0.74
-0.68
-0.61
-0.52
-0.43
-0.33
-0.21
-0.10
0.02
0.13
0.25
0.37
0.49
0.61
0.74
0.87
1.01
1.16
1.33
1.51
1.69
1.91
2.15
2.41
2.70
3.03
3.38
3.77
4.20
4.67
5.18
5.74
6.34
7.00
7.70
8.45
9.27
10.17
11.14
12.21
13.37
14.63
16.00
17.46
19.01
20.65
22.40
24.24
26.19
28.23
30.38
32.64
34.99
37.39
39.87
42.36
44.73
46.81
48.41
49.23
49.00
47.34
43.96
38.65
31.41
22.30
11.59
-0.30
-12.86
-25.12
-36.70
-47.09
-55.95
-62.96
-68.10
-71.44
-73.23
-74.05
-73.94
-73.29
-72.37
-71.43
-70.54
-69.79
-69.19
-68.68
-68.07
-67.03
-65.36
-62.71
-59.09
-53.73
-46.24
-36.33
-23.86
-8.94
8.19
26.88
46.63
65.82
83.36
98.21
109.57
116.99
120.20
119.38
114.57
105.99
93.88
78.83
61.53
42.88
24.41
7.11
-8.01
-20.45
-30.13
-37.50
-43.08
-47.37
-50.73
-53.16
-54.94
-55.65
-55.34
-54.37
-53.23
-52.42
-52.45
-53.79
-56.67
-60.99
-65.78
-69.26
-69.23
-63.94
-53.16
-38.65
-23.73
-11.86
-5.35
-4.29
-7.15
-11.65
-16.04
-19.76
-23.23
-27.05
-31.38
-36.03
-40.86
-46.29
-53.09
-61.71
-71.66
-81.63
-89.86
-94.97
-96.68
-95.69
-93.06
-89.51
-85.11
-78.72
-69.44
-56.82
-41.06
-22.81
-2.81
18.18
39.32
59.44
77.43
92.21
102.93
109.31
111.65
110.74
107.88
103.78
99.15
94.42
89.65
84.77
79.67
74.36
68.93
63.54
58.26
53.24
48.62
44.42
40.66
37.33
34.52
32.26
30.54
29.19
28.16
27.57
27.16
26.99
26.62
25.55
23.30
20.10
17.15
16.52
19.94
27.36
36.53
44.21
48.11
48.21
46.28
44.66
44.33
44.39
43.36
39.80
34.14
28.17
23.49
20.15
16.64
11.03
2.05
-9.03
-20.06
-29.20
-35.28
-37.94
-37.16
-31.85
-20.76
-3.08
20.56
46.82
69.79
82.49
79.00
56.78
18.02
-30.72
-80.04
-119.90
-143.12
-147.23
-134.34
-110.12
-81.67
-55.41
-35.56
-23.46
-18.07
-17.39
-19.47
-23.00
-27.28
-31.70
-35.11
-36.34
-34.74
-30.71
-26.24
-23.54
-24.12
-28.13
-34.08
-39.66
-42.95
-43.03
-40.52
-37.34
-35.64
-36.84
-40.75
-45.80
-49.49
-49.58
-44.65
-34.81
-21.32
-5.93
9.75
25.09
40.42
56.64
74.59
94.68
117.28
141.44
164.37
181.33
186.62
175.70
148.29
107.32
60.49
16.79
-16.88
-38.18
-49.35
-54.93
-59.15
-64.17
-70.48
-77.21
-83.06
-86.40
-85.13
-77.03
-60.91
-38.09
-12.77
9.10
22.10
23.72
15.20
0.30
-16.85
-33.33
-47.73
-59.54
-68.36
-73.35
-73.62
-68.92
-60.18
-48.76
-36.14
-23.27
-10.13
3.75
18.82
34.96
51.00
65.34
75.84
80.79
79.37
71.98
59.84
44.59
27.90
10.37
-6.46
-22.08
-36.17
-48.46
-58.30
-64.99
-68.11
-67.41
-63.27
-56.07
-46.74
-36.39
-26.06
-16.44
-8.12
-1.68
2.43
3.64
2.03
-2.10
-8.20
-15.36
-22.19
-27.19
-29.32
-27.96
-23.11
-14.56
-2.63
12.00
26.25
39.22
50.48
59.04
66.22
70.40
70.83
67.25
59.85
49.18
36.47
23.54
11.56
1.14
-6.97
-11.69
-12.18
-8.07
0.78
10.50
20.93
31.68
41.35
49.02
54.12
56.32
55.50
51.86
46.51
40.99
38.95
38.05
36.82
34.37
30.23
24.30
16.72
8.71
1.73
-3.79
-8.93
-14.07
-19.48
-25.10
-30.32
-33.96
-33.42
-25.92
-9.68
11.90
36.54
61.91
86.03
107.54
118.10
112.91
92.57
62.43
28.62
-4.33
-34.84
-62.77
-87.89
-109.04
-123.88
-130.35
-127.78
-117.80
-103.83
-89.50
-76.86
-65.86
-54.00
-37.50
-13.17
17.46
51.10
83.63
110.82
128.72
133.48
128.21
113.55
92.38
71.73
58.84
58.50
70.36
88.39
102.34
103.61
88.40
53.76
5.15
-49.34
-102.20
-149.51
-190.90
-231.33
-273.00
-309.49
-339.91
-354.69
-347.61
-318.01
-271.72
-214.43
-159.88
-121.07
-102.90
-97.91
-92.57
-79.31
-57.03
-31.26
-7.80
9.14
21.34
34.96
56.76
91.43
137.71
189.97
241.10
285.28
318.42
339.98
350.20
348.42
333.71
306.31
270.54
234.30
205.21
185.09
169.98
151.83
124.11
86.80
47.61
18.96
11.64
28.96
58.74
84.04
89.82
71.93
38.07
1.11
-29.31
-50.45
-64.99
-77.06
-88.07
-97.13
-102.84
-106.48
-110.93
-120.74
-138.97
-165.05
-195.27
-224.09
-246.96
-259.03
-260.13
-253.54
-243.45
-232.98
-222.88
-211.28
-194.19
-167.72
-130.10
-82.97
-31.86
16.19
53.63
76.05
83.83
81.23
74.07
67.33
65.19
68.88
77.83
89.61
101.93
113.68
125.06
137.22
152.38
176.34
208.46
248.73
294.28
339.60
377.19
398.83
397.63
356.08
272.54
162.56
52.40
-36.69
-96.59
-130.63
-147.03
-153.43
-154.25
-149.06
-137.70
-121.85
-105.70
-93.18
-85.90
-82.95
-82.03
-80.56
-75.16
-64.82
-50.90
-36.65
-25.04
-17.35
-13.09
-11.42
-10.61
-8.73
-5.42
-1.86
-0.25
-2.47
-9.06
-18.08
-28.30
-38.18
-46.03
-50.92
-53.03
-53.26
-52.60
-51.69
-50.69
-49.70
-48.50
-46.82
-44.47
-41.70
-38.86
-36.27
-34.15
-32.51
-31.50
-31.04
-31.05
-31.27
-31.54
-31.69
-31.65
-31.51
-31.45
-31.78
-32.42
-33.88
-34.80
-34.09
-30.95
-25.16
-17.30
-8.40
0.20
7.46
12.90
16.60
19.08
20.91
22.53
23.87
24.52
23.98
21.91
18.39
13.75
8.56
3.49
-1.14
-5.61
-10.76
-18.06
-29.36
-44.88
-65.80
-90.62
-114.46
-130.08
-130.35
-111.91
-77.36
-34.94
4.51
31.96
44.05
43.59
37.15
31.55
30.69
35.11
43.53
54.60
66.79
77.73
83.56
80.03
65.47
42.92
19.92
5.64
6.26
21.51
45.03
67.27
79.94
80.26
70.87
56.77
42.11
28.63
16.17
4.62
-5.07
-11.19
-12.55
-9.62
-4.72
-0.63
0.50
-1.74
-5.95
-9.89
-11.54
-10.17
-6.57
-2.71
-0.56
-1.22
-4.51
-9.10
-12.80
-13.30
-8.97
0.10
11.25
19.75
20.37
9.50
-12.72
-41.66
-69.64
-88.88
-94.05
-85.33
-67.09
-45.29
-24.76
-7.69
5.94
16.98
25.80
32.00
34.92
34.65
32.24
29.27
27.24
26.93
28.11
29.84
31.20
31.51
30.87
29.76
28.76
28.14
27.87
27.58
27.03
26.39
26.10
26.65
27.98
29.45
29.86
28.11
23.39
15.85
6.53
-3.35
-12.87
-22.19
-32.33
-44.76
-60.53
-79.88
-102.61
-127.17
-150.47
-168.02
-174.85
-167.07
-144.65
-109.74
-68.34
-27.59
7.11
33.88
54.49
72.75
92.29
113.99
136.38
155.10
164.82
161.60
144.64
116.95
84.42
53.88
30.60
16.63
10.45
8.93
9.36
10.55
12.77
16.50
21.43
26.09
28.76
28.36
25.20
20.85
17.11
15.36
15.71
17.36
19.03
19.66
18.59
15.66
10.98
4.68
-3.26
-12.99
-24.49
-37.53
-51.67
-65.92
-79.84
-93.05
-105.23
-116.23
-126.41
-136.56
-147.36
-158.36
-167.57
-170.75
-163.73
-144.49
-114.81
-80.32
-48.48
-25.45
-13.78
-11.70
-14.72
-18.00
-18.43
-15.03
-8.30
0.90
12.28
25.97
41.98
59.79
78.32
95.78
111.10
123.63
133.03
139.29
142.81
143.97
143.37
141.54
139.39
137.13
135.52
135.53
138.03
142.54
146.50
145.51
134.84
111.98
78.38
39.66
2.67
-26.52
-45.21
-54.71
-58.64
-60.80
-63.27
-66.13
-68.37
-69.26
-68.71
-67.23
-65.20
-62.37
-58.00
-51.37
-42.21
-30.79
-18.71
-7.26
2.63
10.40
16.15
19.84
21.14
19.33
13.65
3.71
-9.98
-26.11
-42.60
-58.06
-71.63
-83.03
-92.45
-100.50
-108.10
-116.22
-125.44
-135.12
-142.73
-144.18
-135.33
-114.31
-83.13
-47.53
-14.93
8.55
20.46
22.34
18.30
12.61
7.99
5.10
3.74
3.78
5.66
10.29
18.05
28.49
40.47
52.73
64.20
74.45
83.45
91.18
97.47
102.04
104.42
104.31
101.60
96.42
89.45
82.14
76.74
75.63
79.78
87.34
93.54
91.98
77.58
49.35
11.47
-27.99
-60.10
-78.81
-83.06
-76.20
-64.03
-52.06
-43.75
-40.76
-43.58
-52.18
-65.89
-82.29
-96.27
-100.70
-89.18
-59.54
-16.67
28.25
62.12
75.33
65.90
40.24
9.79
-14.44
-25.29
-22.35
-10.71
3.66
17.45
30.42
43.79
57.89
71.27
81.20
85.42
83.77
78.35
72.32
68.20
66.07
63.87
58.28
46.21
26.14
-0.95
-32.05
-61.84
-86.91
-105.76
-118.80
-128.05
-136.36
-146.49
-159.94
-175.94
-190.78
-198.85
-194.23
-173.42
-137.83
-94.12
-51.92
-19.76
-1.93
3.15
1.09
-1.44
0.30
8.28
22.09
40.48
61.94
84.32
104.30
117.52
119.36
109.33
90.70
69.32
51.26
40.16
36.37
37.83
41.86
46.46
51.08
55.26
58.02
58.06
54.22
45.98
33.71
18.71
2.31
-12.99
-24.28
-28.88
-25.54
-15.53
-2.46
8.52
13.30
10.41
1.56
-10.22
-22.02
-32.10
-39.82
-44.58
-44.30
-36.03
-17.48
10.69
43.55
72.86
90.00
89.07
69.69
37.39
1.67
-27.26
-41.81
-39.29
-22.19
3.07
28.59
47.31
54.95
51.23
38.97
22.26
4.80
-11.16
-24.79
-36.13
-44.84
-50.27
-51.94
-50.32
-47.03
-44.25
-43.67
-45.98
-50.44
-55.49
-59.44
-61.39
-61.58
-61.11
-61.33
-63.12
-66.55
-70.94
-75.21
-78.38
-80.03
-80.28
-79.44
-77.70
-74.63
-69.15
-60.15
-46.96
-29.74
-9.46
12.34
34.14
54.93
73.77
90.80
106.27
119.98
131.17
138.76
142.06
141.04
136.62
130.94
125.43
121.35
119.61
120.72
124.56
129.78
133.33
130.73
117.85
92.92
58.21
19.68
-15.10
-40.06
-52.95
-55.64
-52.44
-47.49
-42.97
-38.86
-34.22
-28.56
-22.57
-17.59
-14.65
-13.72
-13.63
-12.88
-10.13
-5.12
1.41
8.07
13.62
17.31
19.10
19.67
19.98
20.81
22.52
24.81
27.10
28.49
28.13
25.43
20.13
12.42
2.91
-7.55
-18.23
-28.42
-37.78
-46.42
-54.66
-62.82
-70.87
-78.16
-83.64
-86.48
-86.15
-82.94
-78.11
-73.36
-70.26
-70.09
-73.64
-80.08
-89.70
-100.72
-109.41
-111.11
-101.95
-80.86
-50.75
-17.66
11.31
30.96
40.04
40.84
37.24
32.60
28.43
24.49
20.02
14.83
9.69
5.97
4.43
4.81
5.98
6.56
5.63
3.55
1.40
0.47
1.74
5.30
10.27
15.17
18.48
19.13
16.90
12.36
6.54
0.59
-4.53
-8.32
-10.50
-10.99
-9.78
-6.82
-2.22
3.70
10.34
16.98
22.74
26.91
29.03
28.94
26.64
22.40
16.68
9.91
2.53
-5.08
-12.88
-20.53
-28.11
-35.97
-44.44
-53.66
-63.34
-72.50
-79.76
-83.66
-82.68
-76.17
-64.30
-48.12
-29.02
-8.34
13.05
34.84
56.31
77.39
97.35
114.89
128.40
136.78
139.74
138.13
133.68
128.24
123.65
121.18
121.63
125.03
130.08
133.61
131.04
118.37
93.27
57.85
18.17
-17.90
-43.91
-57.33
-60.10
-56.75
-51.79
-47.71
-44.29
-40.18
-34.44
-27.56
-21.14
-16.86
-15.36
-15.90
-16.95
-16.46
-13.18
-7.01
0.88
8.59
14.18
16.37
14.99
10.82
5.37
0.03
-4.69
-9.26
-15.04
-23.59
-35.82
-51.19
-68.97
-87.90
-106.55
-123.00
-134.42
-137.38
-128.97
-108.81
-79.06
-45.15
-13.56
10.62
25.57
32.69
35.11
35.40
34.38
31.47
25.76
17.70
9.60
4.75
5.65
12.53
22.47
30.15
29.52
16.21
-10.70
-48.05
-89.65
-127.64
-154.57
-165.02
-156.69
-130.82
-91.96
-46.85
-2.87
33.71
59.18
72.85
76.51
73.22
66.06
57.35
48.83
41.78
37.06
34.87
34.51
34.52
33.46
30.69
26.73
23.21
22.12
24.76
31.24
40.37
50.20
58.90
65.41
69.94
73.97
79.85
89.79
104.65
122.68
139.00
147.00
140.91
118.50
82.70
40.65
0.56
-31.57
-53.46
-65.64
-69.09
-63.55
-47.96
-22.11
11.87
49.97
87.96
123.41
155.41
183.37
205.47
218.51
219.41
207.27
184.41
154.52
122.82
92.89
65.54
39.55
13.85
-10.96
-32.67
-48.81
-58.20
-61.83
-62.99
-66.09
-75.16
-92.20
-116.16
-142.99
-166.86
-182.16
-185.54
-177.34
-161.28
-142.59
-125.68
-112.14
-100.52
-87.27
-68.66
-42.31
-7.93
33.22
79.26
128.18
177.55
223.82
262.12
287.06
294.51
283.20
255.61
217.30
174.88
133.70
96.43
62.96
31.65
0.98
-29.46
-58.86
-86.20
-111.20
-134.92
-159.36
-186.78
-219.06
-257.70
-303.57
-356.40
-414.37
-473.00
-525.24
-562.84
-578.85
-570.01
-537.97
-488.31
-428.22
-364.97
-304.10
-248.96
-201.31
-161.58
-129.11
-102.18
-77.91
-52.34
-22.60
11.94
49.03
83.03
106.35
111.74
95.01
57.26
13.25
-18.87
-23.02
7.95
67.99
142.67
216.98
281.34
332.82
371.94
402.29
423.96
433.70
426.37
398.96
352.28
291.08
222.20
152.75
88.15
30.73
-19.49
-64.89
-107.40
-147.81
-185.90
-221.59
-255.18
-287.13
-317.08
-333.56
-327.05
-293.64
-238.64
-174.74
-116.04
-72.07
-45.32
-32.64
-28.41
-29.12
-33.37
-42.41
-54.62
-66.41
-73.48
-72.55
-63.05
-47.23
-30.03
-16.29
-8.50
-5.50
-3.53
1.26
11.58
27.71
47.55
67.22
83.21
93.98
100.78
106.54
114.51
127.34
146.60
172.75
204.62
239.26
271.44
294.74
302.92
292.50
264.67
225.05
181.09
138.39
98.31
58.60
16.51
-27.62
-68.68
-98.44
-109.65
-100.21
-74.50
-41.46
-10.16
14.01
30.82
44.03
58.54
77.65
102.25
131.72
165.11
201.44
238.86
273.40
299.01
309.45
300.79
273.74
233.90
189.59
148.56
115.33
90.40
71.37
55.04
38.79
21.18
1.24
-22.33
-51.32
-87.52
-132.21
-186.04
-248.87
-319.34
-394.09
-467.20
-530.79
-576.87
-599.94
-599.10
-578.28
-544.64
-505.73
-466.95
-430.32
-395.40
-360.71
-325.28
-289.08
-252.61
-216.22
-179.96
-143.74
-107.50
-71.42
-35.45
0.68
37.55
75.75
115.40
156.01
196.55
235.89
273.31
308.77
342.79
376.33
410.63
446.99
486.32
528.00
568.79
602.40
620.76
616.81
587.58
536.62
472.79
407.13
348.41
299.49
256.98
213.86
164.12
106.62
46.03
-9.82
-54.28
-85.41
-107.03
-126.45
-150.78
-183.82
-225.12
-271.91
-321.63
-372.80
-424.15
-472.37
-510.74
-530.91
-526.02
-494.58
-441.71
-377.53
-312.81
-255.02
-206.69
-165.27
-126.83
-87.09
-43.63
3.18
50.01
91.71
123.10
141.59
150.52
156.48
168.84
194.18
232.43
275.79
311.91
328.88
320.02
287.14
234.59
169.90
99.79
30.02
-33.24
-82.43
-109.70
-109.56
-79.30
-25.28
43.45
116.52
185.82
247.42
301.65
351.28
385.46
420.90
454.53
482.06
496.98
492.93
466.00
416.71
350.08
274.07
187.95
91.56
-10.77
-111.20
-198.30
-259.46
-285.52
-275.69
-239.65
-193.49
-156.65
-141.66
-150.76
-176.00
-204.65
-225.72
-234.87
-234.42
-228.89
-222.32
-214.94
-204.66
-189.58
-170.20
-148.95
-129.17
-113.36
-101.62
-92.09
-83.33
-75.18
-69.37
-69.42
-79.31
-102.25
-137.86
-181.07
-223.00
-253.69
-265.70
-257.12
-232.19
-199.19
-167.58
-143.15
-126.54
-114.35
-101.82
-85.48
-64.35
-41.06
-18.30
1.47
18.06
32.56
45.55
56.34
63.26
64.24
58.72
51.88
44.16
36.66
30.97
27.38
24.54
19.95
11.25
-1.67
-17.18
-33.10
-46.10
-51.98
-48.53
-35.86
-15.24
6.50
27.07
46.98
67.80
92.07
123.65
163.59
209.28
255.67
297.37
331.66
357.95
376.48
388.18
396.80
404.78
412.41
418.06
418.68
411.12
391.37
355.18
282.32
168.91
29.46
-108.66
-220.08
-293.31
-330.37
-340.62
-334.16
-318.15
-293.46
-260.86
-223.87
-188.48
-160.45
-142.23
-131.95
-124.20
-111.90
-87.42
-48.55
-3.30
37.19
61.97
65.51
49.66
21.86
-8.70
-33.70
-49.57
-57.54
-60.66
-61.87
-62.21
-61.18
-58.09
-53.15
-46.86
-40.58
-35.84
-33.00
-31.73
-30.90
-29.27
-26.23
-22.13
-17.79
-14.26
-12.31
-11.77
-11.92
-11.75
-10.47
-8.07
-5.23
-3.05
-2.32
-3.17
-4.82
-6.09
-5.97
-4.02
-0.82
2.30
3.67
2.13
-2.39
-8.82
-15.47
-20.70
-23.40
-23.47
-21.72
-19.33
-16.99
-14.62
-11.29
-5.85
2.39
13.36
26.13
39.06
50.44
58.75
63.23
64.06
62.57
61.15
62.85
70.01
82.69
97.52
107.89
106.06
86.25
47.69
-4.28
-59.72
-107.18
-137.89
-148.95
-143.60
-128.22
-108.96
-89.80
-72.29
-56.61
-42.81
-30.93
-20.67
-11.19
-1.58
8.22
16.75
21.92
22.12
17.53
10.12
2.46
-3.60
-7.56
-9.97
-11.47
-11.99
-10.87
-7.63
-2.74
2.24
5.50
6.01
4.02
0.70
-2.07
-2.96
-1.58
1.50
5.06
7.97
9.69
10.49
11.24
13.10
16.93
22.88
30.31
37.88
44.09
47.59
47.58
43.87
36.96
27.76
17.32
6.76
-2.97
-11.06
-16.90
-20.06
-20.22
-17.25
-11.21
-2.59
7.86
19.03
29.54
38.10
43.74
46.11
45.60
43.16
39.93
36.85
34.06
30.75
25.53
17.02
4.53
-11.44
-28.94
-45.48
-58.68
-67.45
-72.22
-74.52
-76.22
-78.20
-79.96
-79.25
-73.58
-61.64
-44.22
-24.42
-6.33
6.19
11.38
9.84
4.73
0.80
3.62
17.96
46.55
88.87
140.04
191.45
232.46
254.62
255.49
240.13
219.96
208.17
214.13
239.34
277.81
316.62
341.14
340.99
312.87
261.66
197.26
130.24
67.73
12.42
-35.94
-77.47
-110.18
-132.89
-144.64
-146.06
-140.45
-134.23
-134.61
-146.88
-171.90
-205.99
-246.47
-290.08
-333.58
-374.40
-411.25
-443.49
-469.85
-487.63
-493.55
-489.86
-479.86
-466.13
-450.43
-434.99
-423.04
-418.10
-422.77
-408.35
-362.30
-291.63
-216.15
-153.49
-110.48
-86.18
-76.75
-78.42
-96.56
-131.74
-181.80
-239.63
-293.96
-331.26
-342.43
-325.85
-287.17
-227.22
-157.10
-87.61
-24.00
34.07
92.86
155.84
220.99
282.23
333.99
371.71
395.90
411.84
426.33
450.02
487.19
533.88
581.21
621.62
650.93
670.80
686.96
705.64
738.76
791.27
858.70
929.40
990.94
1032.22
1045.91
1028.24
931.83
743.25
488.18
219.01
-18.79
-205.06
-342.17
-441.26
-512.55
-562.56
-583.54
-569.95
-524.18
-463.68
-403.75
-358.34
-335.74
-336.80
-356.69
-378.14
-387.68
-380.71
-362.55
-343.57
-333.51
-336.74
-340.23
-345.77
-340.14
-316.69
-276.18
-219.75
-156.13
-98.53
-58.40
-39.76
-39.73
-46.71
-52.43
-55.17
-57.83
-63.81
-72.97
-80.54
-79.30
-63.74
-30.17
18.12
73.89
128.87
173.55
198.34
196.21
166.09
114.23
55.39
6.75
-18.16
-13.63
15.18
55.79
94.87
123.77
140.13
147.32
153.75
160.63
166.32
166.67
157.64
137.85
109.95
79.05
50.23
25.69
4.09
-16.27
-36.20
-53.70
-64.97
-66.66
-58.24
-42.37
-22.94
-4.96
10.87
27.14
47.14
72.69
103.13
135.81
167.46
195.10
216.13
229.00
232.95
228.88
219.84
210.42
204.60
203.08
203.44
202.67
201.00
202.86
214.36
239.71
278.02
322.51
362.61
388.15
392.75
375.24
338.10
283.85
215.96
139.38
60.94
-11.78
-72.73
-118.77
-150.02
-169.34
-184.37
-201.60
-223.64
-249.01
-274.46
-297.30
-316.57
-332.79
-347.26
-367.23
-397.59
-437.81
-482.17
-523.67
-557.84
-583.68
-602.44
-616.29
-635.32
-667.25
-713.94
-770.53
-828.98
-880.98
-918.72
-935.26
-878.95
-727.01
-496.56
-238.23
-3.87
177.75
302.69
380.99
426.18
449.69
451.96
433.91
400.52
364.29
337.73
327.63
333.18
347.67
361.65
361.18
339.06
298.18
251.74
215.08
197.69
199.93
215.27
235.03
249.08
252.88
247.93
240.02
234.03
231.38
230.52
229.06
226.15
219.53
208.69
194.36
178.56
162.70
147.00
130.93
114.24
97.58
81.83
68.78
59.73
56.20
58.09
63.90
71.04
76.77
78.82
75.56
70.00
63.08
56.19
48.66
38.81
24.40
3.96
-22.53
-53.40
-85.92
-119.68
-153.28
-187.87
-223.70
-258.74
-288.26
-306.34
-308.55
-293.47
-265.27
-225.81
-179.38
-129.14
-78.26
-31.45
4.91
24.83
26.26
10.38
-11.38
-29.74
-37.61
-33.50
-22.09
-12.11
-12.37
-12.20
-30.30
-56.37
-82.75
-102.98
-115.92
-127.33
-147.68
-187.05
-249.02
-330.43
-414.75
-486.10
-528.63
-531.86
-493.85
-420.90
-324.38
-217.07
-112.76
-6.86
90.15
164.26
206.28
216.03
200.15
168.58
131.65
96.94
69.94
50.70
38.90
34.41
37.15
47.43
66.37
95.72
135.63
182.38
227.84
265.32
291.28
305.27
308.85
304.69
295.49
283.01
268.32
251.28
232.45
213.27
195.33
179.79
167.37
158.30
152.75
150.38
149.65
147.75
140.58
123.97
95.83
58.15
16.85
-20.21
-46.69
-60.24
-62.74
-58.65
-52.38
-46.36
-40.70
-34.66
-28.06
-21.86
-17.96
-17.97
-21.92
-28.11
-34.11
-37.60
-37.90
-35.81
-33.12
-32.01
-34.50
-40.87
-49.44
-57.43
-62.18
-62.42
-58.58
-52.43
-46.47
-43.93
-46.23
-52.30
-59.37
-64.52
-65.76
-62.90
-57.13
-50.50
-46.74
-48.49
-57.03
-72.12
-92.32
-114.87
-136.05
-151.78
-147.89
-120.04
-73.59
-21.29
23.79
53.65
67.43
69.55
66.18
61.81
56.34
48.34
37.00
23.78
11.40
2.29
-2.69
-4.41
-4.93
-7.73
-14.50
-24.72
-35.72
-44.50
-49.05
-49.08
-45.75
-41.07
-38.18
-38.46
-41.20
-44.31
-46.39
-47.28
-47.91
-49.12
-51.17
-53.57
-55.62
-56.39
-56.13
-57.69
-64.25
-76.60
-91.74
-104.15
-108.38
-101.46
-81.46
-48.36
-5.55
42.14
90.19
135.58
176.95
214.77
251.70
286.92
323.13
361.76
401.53
438.32
466.41
479.66
473.36
427.28
338.48
224.50
113.43
27.96
-24.58
-50.19
-60.05
-62.41
-62.29
-58.31
-48.93
-37.10
-29.79
-34.58
-56.50
-97.02
-150.88
-209.55
-261.81
-298.22
-313.44
-306.10
-278.24
-234.93
-183.61
-132.60
-89.16
-55.67
-30.96
-12.66
0.59
8.53
10.07
5.42
-3.14
-11.85
-16.16
-13.67
-5.27
5.67
15.52
21.38
21.80
16.03
3.70
-14.26
-34.89
-53.18
-63.84
-63.88
-54.50
-40.50
-28.17
-19.41
-12.15
-2.19
13.24
32.04
47.44
51.72
41.18
18.78
-6.45
-24.03
-26.98
-13.96
10.82
40.88
69.96
93.75
109.71
115.93
112.45
101.20
87.29
74.23
64.20
56.28
47.37
31.88
6.11
-29.41
-68.82
-102.22
-119.83
-116.02
-92.92
-59.94
-29.74
-12.27
-11.16
-23.24
-41.24
-58.42
-68.74
-70.49
-65.81
-58.15
-49.02
-37.12
-20.62
0.80
24.54
46.45
62.65
71.34
73.78
73.84
75.79
82.34
93.66
107.40
120.30
129.19
133.08
132.02
127.28
120.49
112.09
101.13
85.61
63.68
34.49
-0.35
-37.05
-71.63
-100.66
-122.58
-137.77
-148.06
-155.71
-162.43
-168.83
-174.18
-177.88
-179.12
-178.43
-177.18
-176.97
-179.27
-184.77
-195.84
-210.32
-225.14
-234.91
-233.41
-214.61
-174.98
-115.56
-42.37
35.13
107.79
168.93
217.04
253.20
279.52
297.31
306.23
305.27
293.69
272.44
238.89
197.99
154.49
111.69
71.33
33.92
-0.18
-30.89
-58.00
-81.19
-99.46
-112.82
-121.63
-126.38
-128.39
-127.62
-123.87
-116.54
-104.87
-87.37
-63.45
-33.26
2.33
41.35
81.86
121.99
159.15
189.20
206.91
206.77
186.22
147.81
99.51
52.33
15.80
-5.52
-12.78
-10.98
-5.99
-1.36
2.38
6.68
12.76
20.46
26.88
28.84
24.14
12.13
-6.56
-30.76
-59.47
-91.17
-122.83
-150.21
-168.19
-172.98
-164.13
-145.17
-122.72
-103.67
-92.32
-89.13
-91.70
-95.76
-97.82
-95.94
-89.30
-77.47
-59.86
-35.89
-6.04
27.18
60.19
89.44
112.22
127.83
137.30
142.68
145.91
147.78
148.05
146.33
143.01
139.50
137.40
136.72
135.03
127.85
110.70
82.31
45.69
7.23
-26.29
-50.27
-62.92
-63.91
-52.70
-28.45
7.77
50.43
89.66
113.45
113.26
88.47
47.21
2.53
-33.48
-54.45
-61.02
-58.39
-52.20
-45.64
-38.97
-31.18
-22.05
-12.78
-5.56
-2.12
-2.39
-4.64
-6.25
-4.82
0.53
8.93
18.33
26.01
29.87
29.04
23.84
15.49
5.25
-6.06
-18.29
-31.53
-46.09
-61.69
-77.22
-91.00
-101.06
-105.71
-103.93
-95.66
-81.67
-63.68
-43.67
-23.49
-4.75
11.50
24.73
34.99
42.68
48.30
51.84
53.25
52.43
49.39
44.57
38.92
33.62
29.45
29.23
32.93
38.91
44.47
46.68
43.43
34.03
19.20
0.61
-20.01
-42.25
-66.63
-94.64
-128.49
-170.67
-222.81
-284.38
-351.41
-416.12
-468.83
-500.70
-507.21
-490.37
-457.93
-420.18
-385.60
-357.89
-335.45
-314.05
-290.18
-263.23
-235.53
-210.38
-189.61
-172.12
-154.40
-131.89
-100.91
-59.67
-8.57
49.66
109.61
163.25
201.34
216.39
206.58
177.70
142.57
117.52
116.45
146.22
204.35
280.67
361.15
432.55
485.60
516.71
527.82
523.95
510.61
492.17
471.76
452.45
439.28
437.37
450.12
477.53
515.08
554.90
588.15
608.01
610.63
595.89
563.78
513.85
447.11
367.76
283.52
203.45
135.51
83.83
49.75
29.53
15.97
1.44
-20.46
-53.55
-99.50
-157.38
-232.05
-314.00
-386.81
-437.78
-464.70
-473.42
-470.52
-460.89
-446.94
-431.02
-413.18
-394.00
-374.06
-352.99
-331.56
-310.14
-294.29
-282.76
-275.25
-269.67
-264.49
-258.97
-253.44
-251.70
-256.85
-270.18
-288.93
-308.05
-320.16
-320.43
-308.70
-277.84
-235.24
-193.87
-165.91
-155.72
-162.19
-177.37
-195.47
-213.80
-231.62
-250.19
-266.59
-276.26
-274.03
-256.84
-224.12
-178.48
-124.29
-66.27
-9.89
41.98
88.55
130.61
169.09
204.70
237.06
265.05
286.97
299.99
302.32
293.54
275.11
249.80
221.32
193.21
168.26
147.70
130.84
116.25
102.60
89.61
78.59
72.13
73.66
86.70
113.35
152.64
199.31
243.87
274.72
281.81
260.47
213.73
152.12
90.06
41.02
13.09
6.66
15.02
27.08
31.33
19.89
-8.82
-49.65
-92.75
-127.27
-145.34
-144.48
-127.66
-100.55
-68.39
-33.90
2.44
40.71
79.72
116.58
148.14
172.47
190.44
205.87
224.17
250.07
285.85
330.76
381.13
431.89
477.01
511.36
532.02
539.00
534.66
523.32
510.69
502.66
504.31
516.62
535.74
553.72
561.01
548.89
512.06
449.95
365.85
265.69
154.65
37.01
-82.51
-197.22
-299.27
-381.16
-437.96
-473.47
-488.29
-484.11
-465.03
-438.64
-409.33
-379.33
-350.41
-325.10
-307.30
-300.25
-306.42
-326.52
-359.11
-400.31
-445.20
-488.29
-523.25
-544.09
-545.22
-523.02
-477.94
-414.66
-339.44
-258.57
-176.80
-96.61
-20.17
50.90
116.50
175.95
228.04
273.51
314.67
353.94
391.85
423.68
441.02
437.16
406.78
347.87
265.55
170.91
77.06
-5.29
-73.46
-131.43
-182.79
-232.91
-288.58
-353.27
-426.75
-505.31
-569.54
-600.11
-611.61
-615.93
-611.14
-600.16
-585.82
-569.05
-548.54
-521.99
-489.91
-454.55
-414.30
-367.77
-315.84
-258.97
-197.90
-134.69
-72.78
-18.03
23.93
53.12
71.84
82.37
88.18
92.64
97.89
104.37
109.88
111.26
107.76
99.20
85.04
65.77
42.59
16.91
-9.79
-36.60
-62.69
-86.16
-105.10
-117.82
-123.11
-120.44
-110.02
-92.76
-70.32
-44.96
-18.58
6.73
28.95
46.07
56.39
58.71
52.62
38.64
17.87
-7.85
-36.32
-64.33
-88.60
-105.83
-113.21
-108.21
-88.96
-55.04
-7.09
52.54
122.60
200.83
284.21
368.89
450.56
525.43
589.33
640.09
676.62
704.23
728.71
753.81
778.82
799.23
809.98
806.54
791.28
769.53
753.80
751.51
761.48
774.58
779.49
769.87
744.11
711.09
680.02
664.79
670.98
695.94
731.37
769.34
807.09
842.73
881.44
860.50
738.18
505.76
196.58
-134.66
-440.64
-670.38
-835.10
-950.01
-1027.51
-1067.71
-1069.80
-1036.12
-971.47
-884.22
-783.43
-684.45
-597.25
-521.67
-449.28
-378.80
-310.70
-249.34
-201.63
-172.93
-166.85
-176.04
-188.31
-187.95
-164.12
-113.27
-40.94
40.31
115.90
171.17
198.71
196.09
165.62
111.98
42.71
-33.53
-109.03
-177.81
-237.31
-285.69
-316.43
-322.21
-299.91
-252.50
-188.40
-117.67
-48.11
15.87
73.44
124.16
169.75
209.45
241.58
264.59
277.34
279.76
272.86
258.35
238.52
215.36
189.44
161.13
130.98
98.63
64.30
29.29
-4.16
-33.74
-58.44
-79.34
-98.72
-119.03
-144.83
-178.87
-220.58
-266.00
-309.69
-347.23
-376.74
-398.55
-414.41
-430.71
-451.95
-478.41
-505.44
-526.86
-538.04
-537.91
-528.37
-513.04
-501.51
-501.32
-515.38
-541.03
-573.09
-606.06
-634.71
-653.88
-624.04
-524.89
-363.76
-174.76
2.66
143.00
240.09
300.72
335.91
354.73
356.50
339.10
302.42
255.37
210.61
180.02
171.00
184.59
215.17
247.76
267.59
262.60
230.94
180.35
124.55
78.51
54.01
57.14
84.34
126.38
170.43
205.94
223.03
213.77
175.16
111.34
33.25
-45.55
-111.69
-156.27
-175.11
-170.64
-149.71
-120.69
-90.59
-63.88
-45.06
-35.20
-33.02
-33.74
-32.42
-25.42
-11.09
10.02
34.50
59.16
81.07
97.80
110.74
122.44
135.19
149.96
166.20
180.89
192.90
201.91
207.82
214.26
225.04
242.20
265.31
291.91
316.64
337.10
351.78
338.74
284.67
188.84
63.89
-71.05
-186.79
-281.73
-358.93
-421.02
-469.43
-503.56
-520.81
-520.34
-503.93
-475.09
-439.54
-399.31
-355.31
-308.64
-258.41
-204.30
-147.82
-91.92
-39.81
4.91
42.55
74.95
103.83
131.66
159.92
188.17
214.51
236.66
252.14
261.35
266.18
269.28
274.18
283.66
297.83
313.54
325.11
325.86
312.00
283.77
245.59
204.88
169.72
145.66
134.53
134.87
143.26
156.62
172.64
189.81
207.20
225.13
243.79
263.19
282.99
302.11
319.66
334.42
344.90
349.88
350.32
347.71
343.58
339.01
333.66
326.93
317.17
302.15
280.28
252.96
222.15
189.48
155.74
120.39
84.24
48.74
15.97
-21.36
-62.71
-102.21
-131.71
-141.59
-135.54
-119.35
-97.93
-75.34
-54.03
-34.35
-17.30
-4.70
1.45
-0.63
-9.98
-24.27
-40.83
-57.20
-70.46
-79.24
-83.83
-85.72
-87.06
-88.74
-91.08
-94.39
-98.85
-103.90
-109.14
-114.33
-119.29
-124.00
-127.90
-130.68
-132.70
-134.81
-137.67
-141.74
-147.13
-153.44
-160.23
-167.11
-174.32
-183.07
-195.08
-211.64
-233.11
-258.56
-285.92
-312.76
-336.94
-357.50
-374.99
-391.59
-410.57
-435.47
-468.69
-509.89
-554.71
-594.72
-619.42
-619.49
-590.64
-535.74
-464.54
-390.43
-325.89
-278.32
-248.30
-230.53
-216.95
-200.21
-175.76
-142.48
-101.84
-56.74
-10.76
32.11
67.94
93.57
107.73
111.78
109.30
104.69
101.32
100.26
100.41
99.99
98.30
96.65
97.86
104.90
119.46
141.52
169.87
203.23
240.69
281.65
324.94
368.13
407.45
438.66
458.36
465.15
460.02
445.66
425.33
401.69
376.22
349.24
320.49
289.71
256.92
222.17
185.14
145.08
101.12
53.23
3.24
-44.85
-85.97
-115.61
-131.56
-134.53
-127.43
-113.70
-95.98
-75.83
-54.25
-32.32
-11.06
9.10
28.56
47.86
66.21
80.41
85.37
76.43
51.93
14.76
-28.74
-71.87
-110.88
-146.53
-182.65
-222.58
-265.56
-305.39
-332.08
-336.17
-312.95
-264.69
-199.71
-128.94
-61.59
-2.20
49.38
96.21
141.68
188.02
236.15
285.99
336.44
384.74
426.00
453.82
462.34
448.82
414.84
366.03
309.89
253.14
200.03
151.95
108.28
67.48
27.84
-12.29
-54.24
-98.93
-146.27
-195.08
-243.41
-289.34
-331.63
-370.58
-408.22
-447.61
-491.41
-540.11
-590.65
-636.54
-669.48
-682.21
-671.24
-638.09
-588.58
-530.41
-470.48
-413.20
-360.32
-312.10
-268.52
-229.93
-196.68
-168.41
-143.50
-119.42
-93.76
-65.22
-34.14
-2.32
28.00
55.33
79.62
102.30
125.58
151.47
181.09
214.43
250.40
286.85
320.85
348.94
367.95
376.15
374.01
364.33
350.94
336.98
323.41
308.96
291.43
269.75
245.34
221.90
203.72
193.47
190.89
193.01
195.76
195.90
192.15
185.29
177.21
169.65
163.45
158.27
153.16
147.35
140.64
133.69
128.16
126.53
131.60
145.34
167.22
193.52
217.82
232.90
233.47
218.18
190.19
155.91
122.30
94.00
72.39
56.09
42.40
28.71
13.09
-5.79
-28.87
-56.71
-90.02
-127.66
-165.66
-197.60
-216.54
-217.40
-198.23
-159.74
-104.24
-37.75
32.41
98.23
151.67
185.56
195.23
180.57
147.00
104.05
57.30
9.52
-38.73
-86.96
-133.81
-177.28
-215.44
-247.16
-272.56
-299.62
-337.03
-390.11
-457.70
-533.42
-608.88
-676.71
-731.77
-742.24
-688.77
-571.99
-416.09
-254.17
-110.13
7.27
99.79
169.83
227.94
273.90
303.44
313.04
303.43
278.68
243.17
198.69
146.86
94.10
46.14
10.13
-8.79
-9.53
4.03
24.25
43.23
56.37
63.86
65.17
60.22
48.69
31.08
8.85
-15.88
-40.34
-61.51
-76.75
-87.59
-95.92
-103.52
-109.93
-113.04
-110.05
-98.24
-76.12
-43.91
-4.69
36.94
75.97
109.33
135.44
154.10
166.66
174.93
180.66
185.12
189.30
187.94
179.12
162.29
138.01
108.45
76.51
45.41
18.47
-1.15
-10.70
-7.06
11.69
41.46
76.73
110.67
137.44
154.09
160.61
158.87
152.01
142.57
131.96
121.12
110.13
98.98
87.77
76.95
67.13
59.30
53.87
50.91
50.94
54.15
59.63
64.51
64.07
53.26
29.47
-5.69
-46.21
-83.61
-110.59
-123.83
-124.72
-117.70
-107.48
-96.72
-85.68
-73.32
-58.93
-43.06
-27.20
-12.70
-0.04
11.36
22.15
32.62
41.91
48.36
49.81
44.65
32.54
14.60
-6.41
-27.49
-46.19
-61.19
-72.35
-80.73
-87.67
-94.20
-100.55
-106.22
-110.41
-112.33
-112.85
-111.61
-109.36
-107.01
-105.09
-103.29
-100.80
-96.63
-90.12
-81.38
-71.32
-61.86
-54.81
-51.41
-51.82
-55.24
-60.33
-65.73
-70.63
-74.91
-79.25
-84.33
-90.80
-99.27
-110.15
-123.06
-136.14
-145.80
-147.68
-138.59
-117.99
-89.37
-59.36
-35.38
-22.62
-22.24
-31.62
-45.99
-61.11
-74.14
-84.39
-92.23
-97.68
-99.88
-97.18
-88.05
-71.32
-50.02
-26.82
-4.23
16.16
34.08
50.48
67.03
85.31
106.14
129.08
153.13
176.75
198.67
218.51
236.98
255.73
276.55
300.86
329.38
362.34
399.16
438.16
476.30
509.36
532.71
542.81
538.72
522.87
500.48
477.45
457.71
441.51
425.45
404.26
373.60
332.14
282.05
227.90
174.39
124.43
78.49
35.29
-6.81
-48.46
-88.91
-126.62
-160.28
-189.55
-215.22
-238.73
-261.32
-283.54
-305.02
-324.72
-341.36
-354.17
-363.05
-368.83
-373.00
-377.37
-383.79
-394.11
-410.30
-434.02
-465.66
-502.88
-539.85
-567.92
-578.25
-565.21
-528.98
-475.61
-414.71
-355.37
-303.00
-258.29
-218.60
-180.70
-142.97
-105.82
-70.61
-38.06
-7.25
24.03
58.19
96.83
140.48
188.57
239.79
291.82
340.64
380.32
403.65
404.38
379.51
331.23
267.00
197.73
134.36
84.80
52.45
36.62
34.12
40.97
52.81
64.68
71.00
66.01
45.11
6.05
-50.40
-120.01
-195.49
-267.49
-326.15
-362.86
-372.63
-355.36
-315.82
-261.85
-201.80
-142.70
-90.00
-48.45
-22.60
-15.66
-27.33
-51.97
-79.00
-96.34
-94.96
-72.38
-33.03
14.50
61.53
102.73
136.56
163.14
181.42
187.95
178.45
151.43
111.03
67.48
34.34
23.39
39.29
77.47
125.45
167.43
189.56
183.82
149.66
93.30
25.73
-39.95
-91.39
-119.50
-120.32
-95.14
-49.09
11.05
78.68
148.14
214.40
272.53
317.89
347.31
360.74
362.17
358.64
357.64
364.04
378.13
395.72
410.23
415.40
407.62
386.66
354.72
314.89
269.68
220.76
169.06
115.54
61.70
9.66
-38.23
-79.87
-114.08
-141.36
-163.84
-184.87
-208.41
-237.93
-274.84
-317.18
-359.42
-394.34
-416.15
-423.03
-417.55
-405.02
-390.73
-377.58
-365.47
-352.43
-335.98
-313.94
-284.42
-246.09
-199.15
-147.05
-97.27
-59.41
-41.04
-43.25
-58.75
-74.50
-77.77
-61.49
-26.34
21.09
72.49
121.68
166.17
206.36
243.60
278.32
309.45
334.53
350.07
351.98
336.68
302.58
251.22
187.78
119.81
54.95
-1.33
-47.03
-83.55
-114.44
-143.52
-173.33
-203.96
-232.64
-254.25
-263.10
-255.23
-230.31
-191.98
-146.15
-98.69
-53.33
-11.09
28.67
66.92
104.29
141.48
179.91
221.35
266.05
310.83
348.45
369.67
366.92
337.54
285.25
218.49
146.87
77.73
14.55
-42.55
-95.12
-144.89
-193.41
-242.47
-294.17
-349.98
-408.84
-465.66
-511.72
-537.29
-535.20
-504.07
-449.18
-380.43
-308.59
-241.49
-182.13
-129.31
-80.06
-32.10
14.95
60.14
102.66
142.66
181.06
218.26
253.00
282.40
303.37
314.51
317.27
315.58
313.97
315.48
320.66
328.29
337.35
348.47
363.41
382.97
404.73
422.18
426.63
410.96
373.06
316.97
251.36
185.99
128.40
82.47
48.70
25.76
11.80
4.58
0.84
-3.98
-15.31
-38.17
-75.37
-126.08
-184.79
-241.70
-285.11
-305.30
-298.80
-270.80
-233.70
-202.24
-187.00
-189.85
-204.12
-219.29
-226.97
-225.19
-218.43
-214.13
-217.87
-230.56
-248.58
-266.22
-278.30
-281.35
-273.63
-255.02
-227.42
-194.85
-163.28
-138.66
-124.27
-118.91
-116.97
-110.72
-93.43
-61.90
-17.30
35.82
91.32
143.42
187.97
222.73
247.46
263.89
275.19
285.33
298.04
315.78
339.39
367.89
398.55
426.96
447.51
454.19
442.11
409.55
359.57
300.40
243.49
199.72
175.08
168.06
170.07
169.41
156.61
128.40
88.45
44.74
4.62
-29.08
-58.86
-90.16
-127.11
-169.57
-212.77
-249.20
-271.61
-276.04
-263.24
-238.80
-211.73
-192.03
-188.32
-205.56
-243.26
-295.17
-350.44
-396.15
-420.53
-416.04
-381.11
-320.73
-245.25
-168.04
-102.96
-61.54
-50.22
-68.22
-107.38
-154.12
-194.01
-216.98
-220.28
-208.64
-191.34
-177.63
-173.23
-179.02
-191.52
-204.87
-212.76
-209.73
-192.45
-160.27
-115.60
-63.54
-10.41
38.58
80.85
116.78
148.78
179.67
211.78
246.60
284.55
324.65
364.48
400.70
430.25
451.84
466.87
479.30
493.54
511.82
532.23
548.87
553.91
540.54
505.55
450.43
380.59
303.05
224.06
148.23
78.96
19.13
-29.01
-64.28
-87.37
-100.84
-109.30
-118.34
-132.38
-152.81
-177.41
-201.61
-220.15
-229.07
-226.32
-212.69
-191.52
-167.50
-145.42
-129.44
-122.44
-125.06
-137.38
-153.60
-163.76
-159.95
-142.16
-117.77
-96.36
-84.34
-82.45
-87.01
-92.56
-95.72
-96.71
-98.09
-102.01
-108.73
-116.66
-123.59
-128.29
-130.01
-129.10
-126.70
-123.51
-118.96
-111.27
-98.25
-78.25
-50.85
-17.83
17.75
52.26
82.47
106.20
122.61
132.01
135.53
134.70
131.46
127.54
123.98
121.03
118.29
115.00
110.69
105.25
99.02
92.88
87.75
84.27
82.87
83.93
87.43
92.25
95.48
92.71
79.61
54.30
19.01
-20.12
-55.24
-80.00
-92.01
-93.27
-88.27
-81.38
-74.94
-68.99
-62.52
-54.84
-46.38
-38.13
-30.83
-24.20
-17.10
-8.47
2.10
13.65
24.26
31.52
33.49
29.58
20.51
8.15
-5.28
-17.84
-28.48
-36.97
-43.64
-49.11
-53.78
-57.91
-61.61
-64.99
-67.97
-70.28
-71.39
-70.18
-65.22
-55.28
-39.98
-20.15
2.00
23.51
41.28
52.81
56.94
53.82
44.53
30.52
13.46
-5.14
-24.11
-42.35
-59.15
-74.39
-88.27
-100.51
-109.57
-112.30
-104.88
-84.99
-53.52
-15.22
22.56
52.71
70.98
77.48
75.60
70.00
64.39
60.53
58.39
57.19
56.24
55.20
53.84
51.51
47.57
41.63
33.97
25.90
19.52
16.97
19.59
26.60
34.71
39.04
34.98
20.55
-2.26
-28.03
-50.02
-63.05
-65.49
-59.40
-48.87
-37.86
-28.69
-21.78
-16.79
-13.52
-12.44
-14.14
-18.57
-24.51
-30.05
-33.45
-33.74
-31.65
-28.93
-27.64
-29.05
-33.09
-38.36
-43.07
-45.85
-46.26
-45.37
-44.97
-46.99
-52.73
-62.46
-75.34
-89.23
-101.03
-106.96
-104.10
-91.58
-71.31
-47.61
-25.69
-9.71
-1.26
0.90
0.23
0.32
3.58
10.74
21.26
34.48
50.41
69.95
91.71
114.39
135.89
153.46
164.00
164.82
154.42
132.90
101.89
64.13
22.96
-18.72
-58.86
-95.90
-128.22
-153.43
-168.39
-169.80
-155.46
-125.28
-82.41
-33.21
14.06
51.04
71.13
70.78
49.95
12.07
-36.62
-88.16
-134.45
-168.34
-185.15
-183.03
-163.16
-129.09
-85.55
-37.25
12.07
60.34
107.43
154.52
202.71
251.24
295.98
329.97
345.44
337.10
304.72
253.84
194.01
135.55
86.67
51.49
30.20
20.06
16.88
16.14
14.00
7.95
-2.80
-17.24
-33.88
-52.01
-72.91
-99.42
-134.64
-179.88
-233.25
-289.60
-341.66
-382.31
-406.18
-410.79
-396.57
-366.06
-322.93
-271.11
-214.25
-155.55
-97.73
-42.87
7.93
54.78
99.07
142.93
188.30
236.14
286.18
337.27
387.93
436.52
480.61
516.65
539.96
545.86
531.53
497.37
446.94
385.55
318.19
248.70
180.76
119.69
73.57
51.76
61.15
102.04
166.16
238.37
301.82
343.67
358.78
350.05
325.29
292.79
257.97
222.64
186.46
149.01
111.42
75.82
44.61
19.18
-0.95
-17.93
-34.21
-51.18
-68.33
-83.50
-94.41
-99.50
-98.64
-92.96
-84.72
-75.62
-65.99
-54.84
-40.51
-22.72
-2.73
16.88
32.51
39.11
33.07
13.35
-18.53
-58.71
-104.97
-155.66
-209.07
-263.59
-320.36
-379.05
-436.83
-488.91
-528.68
-554.87
-568.62
-571.97
-568.18
-566.21
-573.38
-592.40
-620.04
-645.51
-661.88
-663.25
-645.71
-609.91
-567.19
-528.75
-500.23
-479.84
-457.73
-432.20
-405.73
-383.00
-324.68
-211.68
-50.88
128.36
267.87
370.77
447.45
504.33
549.81
582.60
592.51
571.14
515.67
429.54
324.90
210.08
95.48
-5.87
-82.19
-130.32
-151.71
-150.58
-133.69
-106.71
-80.71
-64.35
-59.95
-63.92
-71.43
-76.30
-72.60
-57.57
-30.56
4.02
42.30
83.65
129.38
178.39
221.86
251.51
262.17
249.01
211.36
154.41
87.75
21.60
-36.58
-82.80
-115.03
-132.94
-136.31
-125.07
-99.62
-61.36
-13.04
41.13
95.37
142.83
175.79
187.89
178.07
151.76
119.62
93.46
81.29
84.76
100.25
121.32
142.12
159.14
170.35
173.28
164.16
139.22
96.74
38.69
-30.23
-104.49
-179.19
-250.00
-312.30
-360.61
-389.36
-395.14
-378.66
-345.23
-302.69
-258.11
-215.36
-174.84
-135.08
-95.09
-55.84
-19.85
10.53
34.92
55.49
76.01
99.96
128.88
161.84
195.89
227.84
255.70
279.60
301.66
324.92
352.14
384.78
422.44
462.59
500.85
531.39
548.03
545.81
522.42
479.16
420.58
352.91
282.21
213.00
148.02
88.84
36.60
-7.58
-43.13
-70.88
-93.47
-115.07
-140.58
-174.31
-218.84
-273.67
-334.39
-392.84
-438.88
-463.56
-462.54
-437.89
-397.27
-350.48
-305.22
-264.18
-225.08
-183.18
-134.83
-79.89
-22.00
33.14
80.51
117.61
145.25
166.70
186.15
207.26
232.04
261.01
293.44
327.69
361.03
389.57
408.35
412.62
399.65
370.28
329.15
283.23
239.16
201.14
170.14
144.73
122.87
103.04
84.24
65.46
44.82
19.63
-12.93
-54.53
-104.45
-158.74
-210.35
-250.45
-270.51
-265.07
-233.90
-182.68
-122.11
-64.94
-22.67
-3.24
-9.99
-41.86
-94.01
-158.78
-226.70
-287.66
-332.61
-355.01
-351.89
-323.93
-275.22
-212.99
-147.22
-89.11
-48.41
-29.95
-31.16
-42.05
-48.55
-38.36
-6.65
41.69
93.62
133.57
149.95
139.07
105.68
59.82
11.80
-31.45
-67.55
-98.27
-127.60
-159.36
-195.20
-233.67
-270.72
-301.13
-320.38
-325.71
-317.65
-299.83
-277.24
-253.87
-231.30
-208.93
-185.38
-160.18
-132.74
-103.75
-74.45
-45.34
-15.55
16.62
52.10
89.72
126.30
160.63
191.03
215.65
233.26
244.72
253.20
262.62
275.76
293.26
318.53
352.12
390.99
429.87
464.47
493.47
518.01
540.31
562.69
593.14
635.79
687.48
737.85
774.22
786.94
772.25
732.76
636.23
475.85
272.67
66.92
-106.98
-235.11
-320.15
-371.28
-397.78
-407.51
-400.76
-379.72
-349.80
-319.42
-294.94
-277.94
-266.20
-256.53
-246.95
-232.45
-212.17
-189.95
-173.17
-168.73
-179.63
-203.43
-234.30
-265.52
-288.60
-299.92
-300.80
-296.02
-290.34
-285.99
-282.56
-278.34
-272.00
-261.56
-247.75
-233.16
-221.50
-215.83
-217.15
-224.77
-236.92
-253.96
-269.37
-276.51
-269.18
-244.01
-201.52
-145.68
-83.42
-22.43
31.43
75.83
110.08
135.15
151.37
158.94
159.80
157.16
155.80
161.84
182.14
216.85
264.68
320.21
374.26
417.19
439.73
436.03
405.93
354.97
291.21
222.96
155.54
85.32
16.03
-44.33
-87.29
-107.59
-105.51
-86.77
-59.79
-33.64
-15.88
-10.00
-17.21
-38.54
-72.12
-113.91
-154.39
-181.52
-187.93
-175.01
-150.48
-124.84
-105.83
-95.41
-90.90
-88.21
-84.09
-78.00
-70.68
-61.71
-49.74
-32.96
-10.08
18.54
47.11
68.91
77.80
70.94
49.79
18.81
-16.37
-50.54
-79.74
-104.44
-125.17
-141.85
-153.14
-156.49
-148.85
-127.70
-91.78
-41.12
18.81
80.13
134.89
177.67
206.87
224.01
231.84
232.85
228.87
221.19
211.85
202.48
192.93
180.50
160.68
129.86
87.77
38.70
-9.88
-49.93
-76.71
-90.38
-94.44
-92.39
-85.14
-71.30
-49.88
-23.34
2.15
19.03
22.43
13.02
-2.96
-17.11
-22.95
-19.07
-8.93
1.98
9.30
11.86
10.84
8.37
5.73
2.72
-1.77
-8.71
-18.25
-29.06
-38.77
-45.02
-46.03
-41.09
-30.76
-16.42
0.16
17.16
33.20
47.19
58.12
64.90
66.48
61.94
51.05
35.02
15.57
-5.09
-24.67
-41.44
-54.43
-63.42
-68.90
-71.49
-71.87
-70.72
-68.63
-65.98
-63.21
-60.69
-58.73
-57.54
-56.97
-56.68
-56.53
-56.49
-56.47
-56.63
-57.15
-58.19
-59.91
-62.27
-65.13
-68.58
-72.89
-77.84
-83.39
-89.26
-95.15
-101.12
-108.53
-117.00
-125.86
-133.58
-137.14
-133.47
-121.00
-100.82
-76.79
-53.94
-36.23
-24.25
-17.42
-13.25
-9.55
-4.83
2.27
13.83
32.63
60.37
95.94
134.48
169.18
193.81
205.79
206.76
200.85
193.73
186.61
178.92
168.88
154.97
136.72
114.71
89.84
63.12
35.68
8.92
-15.10
-33.66
-43.97
-44.24
-34.24
-16.16
6.22
28.45
46.27
57.07
59.92
55.44
43.78
27.52
8.18
-13.08
-34.83
-55.26
-71.72
-82.05
-84.75
-80.30
-70.75
-60.23
-53.24
-52.69
-59.21
-70.55
-82.91
-92.23
-95.86
-91.87
-79.74
-60.01
-34.83
-9.09
10.48
18.40
13.34
-0.36
-13.04
-14.91
-0.93
26.43
58.72
86.44
104.07
113.52
117.97
121.84
126.94
132.02
134.44
132.40
126.61
119.83
114.30
110.14
106.37
101.09
92.91
82.61
73.18
68.67
72.94
86.81
107.56
131.19
152.62
167.82
175.25
176.13
170.60
164.04
163.45
169.86
181.98
195.47
204.20
202.53
187.86
162.25
131.98
103.54
79.79
61.03
42.38
15.92
-25.00
-81.76
-149.27
-217.62
-276.89
-320.98
-348.17
-361.02
-363.71
-359.96
-352.29
-342.09
-329.66
-314.24
-293.37
-262.70
-218.72
-161.02
-94.21
-27.70
27.23
61.39
70.64
56.99
27.54
-8.44
-42.07
-66.71
-78.70
-77.25
-64.31
-43.97
-21.60
-2.69
8.10
7.57
-5.27
-28.86
-58.83
-88.71
-111.45
-121.98
-119.77
-109.90
-101.42
-103.55
-121.12
-151.78
-186.63
-214.18
-225.23
-216.58
-191.63
-157.78
-122.56
-90.56
-62.37
-35.67
-7.52
23.42
55.80
85.80
108.39
119.47
117.82
106.08
90.07
76.51
70.18
72.15
80.11
90.66
101.90
115.03
133.61
161.05
198.09
241.60
285.36
322.13
345.97
353.19
342.66
315.33
273.37
219.79
158.10
92.39
27.15
-33.47
-86.72
-132.33
-172.28
-209.10
-243.14
-270.63
-284.23
-276.66
-246.01
-198.82
-149.05
-112.35
-99.62
-112.49
-143.71
-181.47
-214.48
-235.76
-242.78
-235.58
-214.71
-181.02
-136.24
-83.63
-27.94
26.32
75.56
118.81
157.52
194.91
233.13
271.02
303.52
323.04
324.55
307.89
279.74
250.62
231.12
225.20
229.09
234.25
232.21
221.13
203.79
185.52
169.24
155.86
141.54
121.51
92.83
54.38
13.54
-21.86
-46.13
-60.00
-65.67
-68.26
-70.57
-72.00
-79.04
-88.27
-97.11
-104.98
-114.43
-124.44
-136.11
-150.87
-161.46
-165.13
-159.34
-144.54
-111.17
-77.54
-41.81
-4.79
32.12
67.00
96.16
117.22
128.05
128.49
118.95
105.16
90.68
77.30
65.33
52.96
37.80
17.65
-8.20
-39.73
-71.94
-98.94
-114.30
-111.02
-84.90
-39.77
13.88
62.78
95.35
107.93
104.09
89.84
72.62
57.76
41.78
18.49
-15.83
-59.67
-107.15
-150.72
-189.83
-226.88
-265.36
-315.02
-383.24
-470.43
-568.76
-666.69
-751.00
-817.93
-867.50
-860.43
-772.90
-608.42
-399.31
-186.04
-17.88
109.71
204.72
271.15
309.89
316.64
286.54
222.05
138.86
58.63
5.15
-12.75
1.03
34.15
67.13
84.71
79.59
60.65
39.76
27.82
25.62
29.68
36.26
40.32
39.23
33.40
28.19
28.43
37.87
54.21
73.39
92.27
107.97
119.17
126.55
135.22
150.11
174.30
206.05
241.14
275.12
303.90
325.17
338.72
349.82
365.11
389.21
422.69
463.76
510.67
562.61
619.67
658.31
658.13
608.37
512.57
387.12
253.02
128.67
25.68
-51.62
-101.95
-131.76
-145.45
-148.16
-145.79
-144.35
-149.03
-164.25
-192.43
-232.77
-278.75
-320.30
-351.34
-370.29
-379.17
-373.38
-350.26
-310.97
-261.47
-215.22
-171.37
-128.48
-87.94
-52.53
-27.65
-19.24
-31.09
-64.00
-114.02
-169.18
-214.56
-236.60
-230.46
-202.61
-167.18
-137.68
-122.02
-120.74
-127.49
-136.22
-143.87
-151.16
-160.50
-174.82
-192.04
-207.75
-217.56
-217.97
-209.56
-195.94
-182.48
-173.51
-170.62
-171.15
-170.60
-165.03
-150.95
-130.56
-108.22
-89.45
-78.76
-77.80
-82.84
-88.55
-92.16
-90.31
-79.43
-57.34
-24.15
17.23
60.48
100.15
129.28
137.45
123.43
97.26
73.62
65.49
79.10
112.29
162.61
224.54
284.09
335.08
380.17
422.77
463.65
500.76
530.93
559.47
591.40
618.38
636.39
647.77
654.69
657.11
653.63
596.72
464.43
329.90
224.29
134.30
57.30
-5.95
-55.62
-93.17
-121.39
-135.60
-132.16
-120.90
-106.59
-86.53
-55.17
-9.57
49.88
118.78
196.36
280.23
357.82
421.23
441.63
402.12
303.16
164.55
13.38
-125.31
-238.17
-327.49
-397.99
-452.17
-487.28
-504.30
-504.59
-491.33
-466.96
-433.81
-396.17
-355.96
-312.26
-262.06
-205.53
-145.75
-88.41
-38.86
-0.64
24.21
36.16
37.81
34.29
29.97
27.86
28.48
30.56
32.39
32.71
30.99
27.58
24.35
22.96
24.52
28.72
34.24
39.52
43.45
45.53
46.32
47.17
49.29
53.82
61.44
72.11
84.74
98.34
108.31
110.28
101.20
80.67
51.62
19.32
-10.43
-33.73
-49.37
-58.71
-63.74
-66.06
-65.95
-62.76
-55.95
-45.60
-33.25
-20.68
-9.51
-0.14
7.82
15.15
22.55
30.14
37.81
44.78
50.72
55.56
59.74
63.49
66.66
68.52
67.65
65.76
63.16
60.29
57.54
55.24
53.42
51.89
50.35
48.56
46.58
43.90
40.39
36.04
30.97
25.57
20.32
15.77
12.31
10.15
8.80
7.77
6.75
5.50
3.98
2.16
0.05
-2.40
-5.10
-8.20
-11.51
-14.71
-17.35
-19.02
-19.62
-19.27
-18.50
-17.76
-17.54
-17.92
-18.83
-20.14
-21.73
-23.83
-26.54
-29.81
-33.32
-36.47
-38.57
-39.21
-38.30
-36.09
-33.07
-29.58
-25.93
-22.21
-18.56
-15.24
-12.62
-11.08
-10.83
-11.96
-14.27
-17.35
-20.64
-23.85
-26.71
-29.34
-32.07
-35.23
-39.10
-43.87
-49.47
-55.49
-61.01
-64.59
-64.67
-60.19
-51.19
-39.08
-26.25
-15.15
-7.31
-2.73
-0.39
1.18
2.92
4.89
6.45
6.87
5.73
3.17
-0.35
-4.43
-8.86
-13.62
-18.59
-23.73
-28.57
-32.66
-35.63
-37.50
-38.52
-39.26
-40.45
-42.61
-46.06
-50.69
-56.06
-61.62
-66.92
-71.68
-75.86
-79.57
-82.79
-85.31
-86.82
-87.03
-85.90
-83.78
-81.39
-79.68
-79.46
-81.24
-84.95
-90.24
-96.34
-102.29
-107.13
-110.14
-110.92
-109.43
-105.74
-100.03
-92.66
-84.04
-74.85
-66.17
-59.14
-54.72
-53.38
-54.75
-57.75
-60.92
-62.44
-60.77
-54.91
-44.67
-30.93
-15.41
-0.34
12.32
21.41
26.85
29.40
30.17
30.36
30.65
31.39
32.60
34.17
35.92
37.58
38.62
38.47
36.67
32.86
26.89
18.83
9.12
-1.41
-11.15
-17.97
-19.48
-13.77
-0.44
18.80
40.28
59.04
70.37
71.04
60.28
39.96
13.84
-13.46
-37.52
-54.96
-63.87
-63.64
-55.11
-40.33
-22.29
-4.54
9.67
18.09
20.08
16.75
10.59
4.43
0.65
0.51
3.96
10.08
17.52
24.96
31.42
36.39
39.59
41.02
40.95
39.70
37.72
35.37
32.75
29.82
26.45
22.50
18.05
13.40
8.96
5.25
2.71
1.54
1.65
2.73
4.25
5.63
6.41
6.16
4.71
1.97
-2.07
-7.12
-12.71
-18.25
-23.12
-26.78
-29.03
-29.92
-29.52
-28.10
-25.55
-21.71
-16.39
-9.53
-1.44
7.19
15.43
22.53
27.88
31.49
33.87
35.77
38.02
41.11
44.79
48.41
51.04
51.73
50.12
46.21
40.86
35.48
31.57
29.86
30.14
30.97
30.49
26.98
19.87
10.24
0.82
-5.00
-4.87
1.19
10.16
16.83
15.08
-0.55
-32.76
-79.88
-135.58
-190.27
-233.10
-254.72
-249.46
-217.10
-164.28
-101.02
-36.96
21.25
70.27
109.04
137.64
156.91
167.18
165.66
150.16
121.33
83.31
41.32
-0.51
-40.08
-76.90
-113.07
-156.19
-212.00
-279.46
-348.92
-406.42
-439.58
-441.47
-411.61
-357.61
-297.81
-250.91
-229.31
-235.94
-267.64
-319.22
-385.13
-458.48
-491.58
-449.64
-330.66
-168.92
-5.72
134.72
246.38
325.39
382.43
420.78
433.90
416.91
372.36
311.77
249.45
199.10
170.78
167.71
182.02
196.11
195.23
174.91
143.12
111.49
88.97
78.91
80.98
91.63
105.31
118.71
131.85
146.83
165.06
185.83
206.22
223.21
233.84
235.72
228.48
213.89
195.27
176.18
159.34
145.80
135.10
125.00
112.70
96.30
75.87
53.52
32.33
15.11
3.19
-3.74
-7.51
-9.90
-11.68
-12.55
-11.40
-7.24
-0.14
8.29
15.38
18.25
14.82
4.62
-11.68
-32.90
-58.00
-86.50
-118.06
-151.69
-185.15
-214.96
-236.78
-246.61
-241.63
-220.83
-184.89
-135.82
-76.71
-11.77
53.18
110.83
153.24
174.00
170.67
146.46
109.97
72.55
44.79
33.60
40.34
61.29
89.69
118.29
141.32
155.15
157.69
148.57
129.71
105.09
79.92
59.33
47.45
46.38
55.84
72.51
91.42
108.49
121.47
130.11
135.40
139.04
142.34
145.39
145.28
137.10
116.99
83.35
37.67
-16.24
-72.91
-126.23
-164.70
-179.37
-170.43
-144.94
-111.25
-74.64
-37.82
-2.06
31.71
62.49
88.80
108.02
119.36
122.96
119.91
110.62
95.24
73.41
45.92
15.81
-14.00
-39.78
-59.26
-71.08
-75.75
-74.24
-67.24
-55.95
-41.91
-33.63
-30.16
-29.20
-27.98
-24.95
-18.91
-8.49
5.62
21.50
34.15
39.91
35.34
25.55
12.87
-0.51
-10.99
-17.00
-17.79
-15.92
-12.74
-9.01
-5.63
-4.19
-6.48
-12.77
-25.67
-29.77
-16.28
15.92
59.74
105.33
146.99
170.90
183.27
189.92
193.59
192.00
181.58
170.49
161.86
156.96
155.42
157.58
161.14
161.61
153.99
136.51
111.19
80.94
49.46
19.79
-4.60
-22.82
-39.99
-62.32
-93.55
-133.93
-182.92
-239.01
-300.45
-363.49
-423.44
-482.88
-542.93
-600.97
-651.14
-688.36
-710.08
-716.88
-710.60
-692.63
-675.51
-669.45
-678.99
-702.71
-736.97
-778.96
-827.84
-884.13
-893.23
-827.44
-689.73
-510.80
-325.21
-153.60
-2.52
127.08
223.08
294.84
340.23
358.50
354.12
336.43
315.03
296.70
285.98
284.39
294.87
310.55
325.48
336.24
342.26
343.94
342.64
339.74
337.55
341.92
353.86
375.23
407.43
449.82
496.79
539.65
566.37
566.16
535.94
478.39
404.97
331.75
275.05
245.37
247.07
274.29
313.34
348.62
365.85
357.25
322.16
267.28
185.41
83.23
-23.31
-116.46
-185.07
-227.90
-246.02
-249.80
-250.19
-257.96
-278.66
-314.38
-365.23
-424.37
-481.32
-525.67
-552.23
-561.26
-558.21
-548.00
-535.35
-523.78
-514.39
-505.89
-494.27
-474.73
-442.23
-394.21
-330.06
-253.47
-171.26
-90.42
-15.59
52.19
113.39
168.73
217.00
257.59
289.96
314.59
333.15
347.71
361.38
375.45
388.71
396.56
396.79
389.41
376.87
362.78
350.92
347.08
353.90
369.28
383.79
391.11
388.39
376.53
358.44
338.26
325.20
325.41
339.38
357.07
372.64
382.49
385.50
380.68
369.31
363.13
374.71
411.33
464.90
526.89
585.23
628.63
648.63
602.00
474.80
288.45
134.22
36.92
-9.08
-34.66
-57.89
-88.84
-130.38
-174.85
-215.84
-261.20
-318.28
-376.45
-420.02
-439.15
-438.94
-434.26
-435.37
-445.29
-458.27
-471.48
-474.73
-463.08
-438.47
-410.18
-388.01
-373.76
-363.46
-351.35
-337.44
-317.52
-293.72
-270.09
-250.33
-234.57
-218.58
-197.46
-169.29
-137.67
-107.35
-84.22
-71.53
-68.89
-67.76
-59.75
-40.26
-10.23
24.80
58.81
86.37
104.88
114.67
118.62
119.98
121.25
123.69
127.15
130.44
131.83
130.65
127.74
124.79
123.70
124.00
123.96
121.01
112.58
96.44
71.33
37.17
-4.60
-49.71
-91.49
-122.46
-136.54
-131.58
-110.63
-81.08
-51.71
-29.25
-16.44
-12.14
-12.87
-15.26
-17.73
-20.39
-23.85
-28.02
-31.75
-33.55
-32.88
-30.38
-27.55
-26.18
-27.43
-31.20
-36.38
-41.38
-44.91
-46.67
-47.28
-47.82
-49.52
-53.03
-58.00
-63.34
-67.60
-69.50
-68.39
-64.85
-59.03
-51.59
-43.20
-34.25
-24.95
-15.43
-5.93
3.12
11.10
17.47
21.68
23.52
23.13
20.90
17.32
12.82
7.70
2.16
-3.66
-9.78
-16.26
-22.94
-29.81
-36.84
-44.10
-51.71
-59.76
-68.36
-77.59
-87.60
-98.09
-108.88
-119.76
-130.59
-141.28
-151.78
-162.12
-172.40
-182.88
-193.30
-203.59
-213.67
-223.41
-232.58
-240.76
-247.28
-250.98
-253.61
-255.48
-256.63
-256.96
-256.31
-254.51
-251.47
-247.16
-241.58
-234.79
-226.35
-215.94
-203.27
-188.05
-169.98
-148.72
-123.99
-95.58
-63.32
-26.91
13.65
57.84
104.59
152.35
199.12
242.69
280.91
312.03
335.04
349.55
355.74
354.12
345.45
330.61
310.63
286.73
260.39
233.42
207.60
184.36
164.50
148.14
134.74
123.53
113.86
105.60
99.19
95.45
95.07
98.17
104.10
111.56
119.00
125.24
129.83
133.34
137.20
143.45
154.26
171.12
193.92
220.14
244.78
261.33
263.83
248.95
217.42
173.96
125.57
79.40
40.71
12.13
-5.96
-14.33
-14.09
-6.33
7.55
25.66
45.84
66.34
86.53
107.14
129.56
154.67
181.92
209.22
233.47
251.78
262.16
263.69
256.28
240.56
218.30
192.84
168.77
150.36
139.58
134.66
130.48
121.15
103.10
77.25
48.69
24.30
9.54
6.45
13.28
25.84
39.24
49.30
53.40
50.62
41.68
28.61
13.87
-0.82
-15.29
-30.97
-50.01
-74.00
-102.89
-135.05
-168.27
-201.11
-233.73
-267.95
-306.19
-349.91
-398.03
-446.19
-487.35
-513.76
-519.57
-503.17
-467.96
-421.01
-370.34
-322.04
-278.64
-239.57
-202.99
-167.81
-134.58
-104.89
-79.95
-59.30
-40.61
-20.57
3.79
34.14
70.29
110.32
151.02
188.68
219.71
241.55
253.29
255.79
251.28
242.37
231.33
219.44
207.10
193.81
178.39
159.18
134.35
102.77
64.88
23.47
-16.69
-50.01
-71.90
-80.36
-76.27
-62.69
-43.41
-21.74
-0.04
20.06
37.36
51.18
61.64
69.96
77.95
87.23
98.08
109.11
117.73
121.54
119.88
114.46
109.21
108.89
117.58
137.23
166.71
201.45
234.14
256.31
260.87
244.71
210.09
164.05
115.82
73.42
41.15
19.09
4.56
-5.43
-12.54
-17.01
-18.61
-17.89
-16.66
-17.24
-21.40
-29.53
-40.86
-54.04
-68.24
-83.38
-99.89
-118.23
-138.23
-158.94
-179.02
-197.11
-212.07
-223.22
-230.07
-232.30
-229.73
-222.25
-210.07
-193.82
-174.49
-153.19
-130.90
-108.15
-85.22
-62.49
-40.67
-20.90
-4.39
8.11
16.61
21.70
24.02
23.68
20.16
12.93
2.21
-10.51
-22.71
-31.93
-36.86
-37.79
-36.25
-33.88
-31.42
-28.47
-23.93
-16.84
-7.09
4.62
17.09
29.24
40.33
49.85
57.22
61.75
62.77
59.93
53.51
44.48
34.15
23.88
14.81
7.66
2.70
-0.28
-1.92
-3.13
-4.76
-7.32
-10.85
-14.91
-18.89
-22.21
-24.54
-25.84
-26.21
-25.88
-25.21
-24.60
-24.43
-24.85
-25.61
-26.11
-25.56
-23.36
-19.25
-13.39
-6.09
2.23
11.11
20.01
28.24
35.12
40.27
43.76
46.15
48.10
50.01
51.78
52.90
52.82
51.23
48.14
43.67
37.73
29.98
20.10
8.10
-5.24
-18.38
-29.54
-37.23
-40.79
-40.60
-37.86
-34.16
-30.87
-28.78
-28.03
-28.25
-28.83
-29.29
-29.43
-29.52
-30.14
-31.91
-35.20
-39.86
-45.25
-50.57
-55.34
-59.51
-63.32
-66.74
-68.95
-68.12
-61.94
-48.55
-27.63
-1.05
27.46
53.59
73.85
86.78
93.17
95.21
95.21
94.45
92.81
89.26
82.83
73.46
62.23
50.91
41.10
33.47
27.66
22.65
17.46
11.68
5.68
0.38
-3.27
-4.75
-4.27
-2.66
-0.93
0.09
0.13
-0.56
-1.46
-2.16
-2.62
-3.13
-4.08
-5.65
-7.69
-9.68
-11.07
-11.50
-10.98
-9.87
-8.70
-7.93
-7.76
-8.11
-8.71
-9.28
-9.65
-9.83
-9.95
-10.10
-10.30
-10.51
-10.72
-10.95
-11.21
-11.41
-11.30
-10.56
-9.08
-7.06
-5.12
-3.97
-4.10
-5.39
-7.21
-8.75
-9.46
-9.37
-8.96
-8.84
-9.34
-10.40
-11.63
-12.70
-13.59
-14.62
-16.24
-18.70
-21.87
-25.28
-28.42
-31.04
-33.25
-35.40
-37.84
-40.66
-43.60
-46.32
-48.62
-50.73
-53.23
-56.83
-61.94
-68.35
-75.08
-80.67
-83.68
-83.28
-79.43
-72.92
-64.92
-56.52
-48.27
-40.10
-31.54
-21.98
-11.06
1.15
14.10
26.89
38.38
47.40
53.23
56.13
57.73
60.75
68.20
81.90
101.49
124.03
144.89
159.37
164.41
159.53
146.59
128.73
108.97
89.45
71.31
55.07
41.04
29.47
20.39
13.35
7.65
2.55
-2.29
-6.54
-9.35
-9.84
-7.57
-2.91
3.02
8.74
12.89
14.63
13.84
11.00
7.01
2.85
-0.68
-3.14
-4.52
-5.16
-5.58
-6.28
-7.46
-8.85
-9.75
-9.29
-6.99
-3.25
0.61
2.75
1.66
-3.01
-10.21
-17.88
-23.78
-26.47
-25.82
-22.86
-19.18
-16.24
-14.89
-15.31
-17.20
-20.02
-23.24
-26.44
-29.30
-31.53
-32.72
-32.28
-29.61
-24.38
-16.70
-7.31
2.65
12.06
20.31
27.38
33.83
40.37
47.43
55.10
63.16
71.32
79.10
85.41
88.42
85.93
76.77
61.89
44.89
31.26
25.99
31.17
44.35
59.42
69.39
69.79
60.49
45.10
28.48
13.70
0.58
-13.96
-33.78
-61.13
-95.47
-133.57
-170.76
-202.54
-225.42
-236.93
-235.37
-219.87
-190.91
-151.12
-105.69
-61.53
-25.73
-3.70
2.58
-5.39
-23.88
-48.72
-76.77
-105.95
-134.18
-158.29
-173.96
-176.69
-163.60
-134.67
-92.60
-41.99
12.19
65.56
114.21
154.31
182.09
194.10
188.34
165.29
128.14
82.38
35.09
-6.52
-36.63
-52.53
-55.76
-51.47
-46.15
-44.49
-46.92
-49.65
-47.22
-35.84
-15.69
9.28
33.97
54.94
71.80
86.20
99.39
110.39
116.27
114.22
103.87
88.18
72.11
59.93
53.38
51.15
50.11
47.55
42.50
35.67
28.37
21.24
13.72
4.79
-5.87
-17.07
-26.53
-32.12
-33.06
-30.37
-26.06
-21.80
-17.81
-12.99
-5.79
4.50
16.88
28.97
37.92
41.77
40.29
35.07
28.61
23.18
19.84
18.10
16.21
12.07
4.24
-7.19
-20.27
-31.77
-38.53
-38.70
-32.65
-22.71
-12.01
-3.14
2.80
6.15
7.86
8.66
8.52
6.97
3.77
-0.50
-4.53
-6.93
-7.05
-5.30
-2.85
-0.98
-0.52
-1.54
-3.57
-5.93
-7.97
-9.24
-9.48
-8.56
-6.56
-3.86
-1.13
0.88
1.73
1.43
0.47
-0.50
-1.07
-1.26
-1.51
-2.24
-3.69
-5.70
-7.90
-9.92
-11.55
-12.83
-13.98
-15.27
-16.96
-19.12
-21.56
-23.77
-24.99
-24.51
-22.01
-17.93
-13.32
-9.51
-7.48
-7.37
-8.38
-9.17
-8.49
-5.83
-1.55
3.29
7.47
10.08
10.84
10.14
8.73
7.49
7.11
7.90
9.63
11.53
12.53
11.67
8.72
4.47
0.46
-1.65
-0.93
2.30
6.56
9.92
10.85
8.89
4.77
0.05
-3.71
-5.46
-5.02
-2.82
0.43
4.10
7.73
10.95
13.23
13.91
12.32
8.15
1.80
-5.68
-12.86
-18.56
-22.25
-24.08
-24.64
-24.42
-23.48
-21.42
-17.75
-12.22
-5.24
2.24
9.04
14.28
17.73
19.68
20.65
21.05
20.91
20.00
18.06
14.98
10.83
5.76
-0.03
-6.24
-12.27
-17.28
-20.37
-20.98
-19.29
-16.28
-13.32
-11.61
-11.67
-13.17
-15.23
-16.91
-17.63
-17.38
-16.52
-15.56
-14.82
-14.37
-13.99
-13.46
-12.70
-11.91
-11.45
-11.75
-12.96
-14.95
-17.27
-19.35
-20.69
-21.03
-20.42
-19.06
-17.26
-15.30
-13.34
-11.49
-9.79
-8.29
-7.09
-6.29
-5.94
-5.96
-6.17
-6.32
-6.28
-6.01
-5.62
-5.33
-5.34
-5.80
-6.74
-8.12
-9.76
-11.41
-12.72
-13.38
-13.23
-12.36
-11.08
-9.81
-8.79
-7.92
-6.82
-4.94
-1.92
2.33
7.46
12.83
17.66
21.27
23.29
23.68
22.75
20.90
18.51
15.85
13.10
10.42
8.02
6.18
5.13
4.99
5.64
6.73
7.81
8.52
8.65
8.28
7.71
7.29
7.32
7.87
8.75
9.61
10.07
9.95
9.33
8.53
7.92
7.78
8.13
8.70
9.07
8.86
7.90
6.42
4.91
3.90
3.77
4.52
5.78
7.06
7.93
8.18
7.85
7.09
5.99
4.60
2.98
1.30
-0.18
-1.24
-1.84
-2.27
-3.03
-4.49
-6.66
-9.17
-11.48
-13.25
-14.49
-15.52
-16.66
-18.06
-19.62
-21.13
-22.43
-23.54
-24.49
-25.21
-25.40
-24.71
-22.90
-20.17
-17.05
-14.28
-12.53
-12.09
-12.76
-13.91
-14.62
-14.03
-11.67
-7.66
-2.64
2.53
7.27
11.40
15.22
19.07
23.03
26.68
29.25
30.03
28.72
25.65
21.54
17.22
13.34
10.27
8.13
6.97
6.84
7.80
9.87
12.87
16.37
19.73
22.26
23.42
23.09
21.44
18.83
15.63
12.04
8.26
4.58
1.48
-0.53
-1.18
-0.63
0.48
1.33
1.34
0.43
-0.92
-1.98
-2.21
-1.44
0.05
1.83
3.49
4.81
5.72
6.19
6.20
5.72
4.79
3.58
2.34
1.38
0.94
1.16
1.98
3.30
4.94
6.69
8.40
10.03
11.59
13.09
14.51
15.57
15.90
15.09
12.92
9.54
5.43
1.25
-2.43
-5.21
-6.99
-7.76
-7.61
-6.61
-4.85
-2.69
-0.76
0.10
-0.84
-3.91
-8.75
-14.42
-19.64
-23.33
-25.00
-24.83
-23.43
-21.47
-19.39
-17.28
-15.03
-12.62
-10.09
-7.63
-5.38
-3.44
-1.87
-0.82
-0.39
-0.57
-1.15
-1.61
-1.38
-0.17
1.87
4.14
5.93
6.86
7.12
7.31
7.98
9.23
10.54
11.05
10.14
7.84
4.85
2.15
0.47
-0.01
0.39
1.15
1.96
2.87
4.06
5.62
7.28
8.50
8.72
7.64
5.34
2.27
-1.04
-4.13
-6.79
-9.06
-11.09
-12.96
-14.60
-15.79
-16.20
-15.58
-13.90
-11.35
-8.32
-5.24
-2.41
0.05
2.17
3.99
5.57
6.86
7.85
8.56
9.10
9.61
10.16
10.71
11.07
11.06
10.54
9.60
8.53
7.72
7.50
7.97
8.99
10.23
11.36
12.12
12.48
12.48
12.21
11.68
10.86
9.77
8.49
7.17
5.93
4.79
3.67
2.49
1.23
0.00
-1.06
-1.92
-2.69
-3.61
-4.89
-6.57
-8.50
-10.37
-11.92
-13.00
-13.64
-13.97
-14.12
-14.07
-13.61
-12.44
-10.38
-7.49
-4.18
-1.03
1.47
3.15
4.25
5.22
6.47
8.17
10.20
12.30
14.19
15.62
16.44
16.51
15.81
14.50
12.93
11.58
10.86
10.93
11.63
12.56
13.25
13.31
12.57
11.07
8.93
6.28
3.23
-0.20
-4.01
-8.06
-12.06
-15.55
-18.05
-19.20
-18.97
-17.66
-15.88
-14.24
-13.23
-13.02
-13.48
-14.25
-14.92
-15.16
-14.78
-13.75
-12.09
-9.82
-6.92
-3.43
0.50
4.58
8.37
11.44
13.53
14.61
14.91
14.75
14.40
13.97
13.45
12.79
11.96
11.01
9.99
8.93
7.83
6.73
5.72
4.97
4.63
4.76
5.21
5.71
6.00
5.96
5.64
5.18
4.72
4.29
3.76
3.00
1.92
0.51
-1.09
-2.79
-4.54
-6.33
-8.31
-10.56
-13.10
-15.75
-18.13
-19.78
-20.34
-19.66
-17.88
-15.39
-12.67
-10.06
-7.70
-5.57
-3.59
-1.68
0.14
1.83
3.33
4.64
5.79
6.86
7.93
9.05
10.22
11.38
12.41
13.09
13.28
12.88
12.00
10.86
9.76
8.93
8.48
8.37
8.49
8.74
9.04
9.32
9.49
9.38
8.81
7.73
6.34
5.05
4.36
4.58
5.61
6.94
7.85
7.78
6.52
4.31
1.60
-1.20
-3.95
-6.66
-9.30
-11.72
-13.57
-14.59
-14.71
-14.19
-13.48
-12.90
-12.52
-12.02
-10.99
-9.14
-6.50
-3.33
0.02
3.28
6.32
9.10
11.61
13.81
15.58
16.83
17.51
17.60
17.13
16.12
14.64
12.82
10.94
9.28
8.12
7.54
7.39
7.36
7.12
6.46
5.40
4.12
2.88
1.87
1.15
0.68
0.43
0.38
0.54
0.78
0.84
0.37
-0.90
-2.99
-5.56
-8.02
-9.82
-10.71
-10.77
-10.39
-9.97
-9.68
-9.43
-8.91
-7.84
-6.08
-3.73
-1.08
1.47
3.50
4.73
5.02
4.51
3.55
2.63
2.23
2.68
4.13
6.44
9.22
11.82
13.47
13.53
11.82
8.85
5.67
3.41
2.80
3.80
5.68
7.48
8.59
8.95
8.93
8.83
8.60
7.85
6.17
3.49
0.26
-2.78
-5.00
-6.17
-6.43
-6.20
-5.86
-5.71
-5.90
-6.47
-7.45
-8.71
-10.05
-11.20
-11.91
-12.12
-11.91
-11.39
-10.54
-9.23
-7.23
-4.50
-1.32
1.78
4.19
5.60
6.10
6.21
6.50
7.36
8.74
10.25
11.39
11.83
11.53
10.77
9.91
9.25
8.85
8.64
8.43
8.06
7.44
6.59
5.64
4.87
4.55
4.90
5.90
7.24
8.44
9.00
8.64
7.37
5.42
3.05
0.40
-2.54
-5.84
-9.41
-12.89
-15.76
-17.52
-17.83
-16.64
-14.22
-11.02
-7.62
-4.70
-2.80
-2.25
-2.92
-4.28
-5.55
-5.98
-5.17
-3.23
-0.76
1.53
3.09
3.78
3.86
3.79
3.98
4.58
5.53
6.60
7.63
8.56
9.44
10.39
11.36
12.18
12.55
12.17
10.89
8.83
6.34
3.91
1.94
0.60
-0.17
-0.58
-0.86
-1.10
-1.28
-1.37
-1.33
-1.28
-1.38
-1.82
-2.69
-3.96
-5.47
-7.04
-8.44
-9.56
-10.33
-10.79
-11.00
-11.03
-10.93
-10.70
-10.32
-9.74
-8.96
-7.98
-6.76
-5.29
-3.56
-1.68
0.14
1.62
2.54
2.86
2.74
2.48
2.38
2.59
3.09
3.72
4.34
4.86
5.25
5.52
5.68
5.74
5.74
5.83
6.10
6.56
7.02
7.20
6.90
6.13
5.19
4.46
4.16
4.21
4.22
3.76
2.64
0.97
-0.85
-2.46
-3.69
-4.61
-5.45
-6.39
-7.46
-8.52
-9.45
-10.15
-10.61
-10.88
-11.00
-10.97
-10.78
-10.46
-10.05
-9.59
-9.08
-8.45
-7.59
-6.40
-4.92
-3.28
-1.66
-0.25
0.90
1.87
2.84
3.91
5.07
6.17
6.99
7.37
7.27
6.83
6.24
5.73
5.46
5.52
5.92
6.54
7.23
7.80
8.11
8.10
7.75
7.10
6.15
4.91
3.44
1.89
0.46
-0.68
-1.45
-1.96
-2.44
-3.16
-4.24
-5.65
-7.12
-8.35
-9.07
-9.15
-8.67
-7.87
-7.06
-6.52
-6.37
-6.49
-6.65
-6.54
-5.94
-4.85
-3.46
-2.04
-0.83
0.09
0.75
1.33
1.96
2.66
3.37
3.95
4.27
4.29
4.04
3.61
3.09
2.54
2.03
1.64
1.48
1.63
2.10
2.70
3.12
3.04
2.28
0.94
-0.60
-1.89
-2.61
-2.65
-2.22
-1.60
-1.09
-0.79
-0.66
-0.57
-0.45
-0.38
-0.54
-1.16
-2.41
-4.31
-6.60
-8.88
-10.64
-11.55
-11.55
-10.86
-9.86
-8.87
-8.01
-7.21
-6.29
-5.15
-3.88
-2.70
-1.86
-1.47
-1.45
-1.56
-1.60
-1.47
-1.22
-0.98
-0.81
-0.71
-0.59
-0.30
0.27
1.22
2.55
4.25
6.16
8.02
9.49
10.24
10.11
9.23
7.95
6.67
5.71
5.11
4.66
4.06
3.09
1.76
0.32
-0.88
-1.58
-1.74
-1.56
-1.40
-1.52
-2.01
-2.77
-3.59
-4.36
-5.03
-5.66
-6.18
-6.40
-6.18
-5.53
-4.75
-4.23
-4.17
-4.38
-4.35
-3.57
-1.90
0.25
2.16
3.23
3.32
2.87
2.58
2.92
3.91
5.16
6.14
6.54
6.36
5.83
5.10
4.20
3.11
1.86
0.66
-0.14
-0.26
0.29
1.27
2.21
2.73
2.59
1.84
0.65
-0.84
-2.53
-4.37
-6.23
-7.85
-8.92
-9.21
-8.70
-7.74
-6.92
-6.85
-7.86
-9.67
-11.51
-12.35
-11.45
-8.76
-5.01
-1.37
1.03
1.61
0.57
-1.39
-3.33
-4.52
-4.61
-3.60
-1.72
0.63
3.00
4.85
5.75
5.49
4.22
2.36
0.57
-0.59
-0.84
-0.22
0.94
2.24
3.34
4.03
4.25
4.02
3.42
2.56
1.63
0.87
0.56
0.87
1.75
2.88
3.78
3.95
3.15
1.52
-0.53
-2.53
-4.10
-5.11
-5.59
-5.64
-5.34
-4.79
-4.17
-3.79
-3.96
-4.78
-6.03
-7.24
-7.90
-7.71
-6.77
-5.42
-4.10
-3.06
-2.28
-1.58
-0.81
0.03
0.82
1.33
1.44
1.19
0.76
0.36
0.20
0.37
0.81
1.39
1.87
2.10
2.04
1.74
1.34
0.98
0.78
0.74
0.83
1.00
1.19
1.39
1.57
1.73
1.82
1.77
1.50
0.95
0.12
-0.90
-2.01
-3.07
-3.98
-4.63
-4.90
-4.67
-3.99
-3.13
-2.59
-2.89
-4.31
-6.58
-8.96
-10.51
-10.59
-9.22
-7.02
-4.88
-3.47
-2.93
-2.90
-2.82
-2.33
-1.48
-0.64
-0.21
-0.40
-1.06
-1.80
-2.18
-1.97
-1.25
-0.33
0.39
0.63
0.31
-0.44
-1.35
-2.11
-2.51
-2.47
-1.96
-1.04
0.26
1.88
3.74
5.66
7.37
8.53
8.85
8.23
6.82
5.05
3.41
2.36
2.06
2.34
2.84
3.18
3.08
2.44
1.26
-0.41
-2.50
-4.84
-7.10
-8.81
-9.51
-8.98
-7.36
-5.18
-3.11
-1.74
-1.22
-1.31
-1.49
-1.30
-0.54
0.63
1.87
2.77
3.13
2.94
2.34
1.56
0.76
0.08
-0.38
-0.53
-0.31
0.23
0.91
1.48
1.76
1.73
1.53
1.34
1.25
1.17
0.91
0.31
-0.59
-1.55
-2.22
-2.37
-2.02
-1.42
-0.84
-0.44
-0.20
-0.09
-0.19
-0.76
-1.99
-3.87
-5.99
-7.73
-8.51
-8.08
-6.70
-4.98
-3.56
-2.83
-2.78
-3.05
-3.19
-2.88
-2.05
-0.86
0.33
1.17
1.44
1.15
0.61
0.27
0.51
1.43
2.69
3.63
3.57
2.16
-0.34
-3.09
-5.06
-5.53
-4.37
-2.14
0.26
2.07
2.90
2.79
1.99
0.74
-0.80
-2.44
-3.87
-4.66
-4.43
-3.15
-1.21
0.69
1.85
1.89
0.92
-0.64
-2.25
-3.50
-4.21
-4.36
-4.02
-3.28
-2.26
-1.12
-0.13
0.48
0.56
0.15
-0.54
-1.21
-1.59
-1.50
-0.93
-0.00
1.08
2.04
2.62
2.65
2.15
1.31
0.47
-0.04
-0.02
0.54
1.45
2.38
3.07
3.35
3.20
2.72
2.09
1.49
1.07
0.91
1.01
1.36
1.86
2.41
2.81
2.78
2.08
0.55
-1.65
-4.09
-6.14
-7.22
-7.06
-5.85
-4.16
-2.71
-2.04
-2.34
-3.41
-4.83
-6.13
-6.90
-6.92
-6.12
-4.61
-2.58
-0.39
1.57
2.90
3.34
2.94
1.95
0.82
-0.03
-0.38
-0.22
0.24
0.75
1.11
1.26
1.23
1.12
1.04
1.07
1.22
1.43
1.63
1.72
1.67
1.49
1.29
1.18
1.25
1.50
1.86
2.20
2.42
2.42
2.15
1.59
0.77
-0.22
-1.27
-2.23
-2.98
-3.46
-3.64
-3.56
-3.27
-2.83
-2.36
-1.99
-1.87
-2.12
-2.75
-3.60
-4.36
-4.75
-4.59
-3.91
-2.92
-1.92
-1.15
-0.71
-0.54
-0.50
-0.45
-0.29
-0.02
0.34
0.71
1.02
1.28
1.57
2.01
2.67
3.52
4.34
4.82
4.76
4.11
3.09
2.06
1.34
1.09
1.26
1.67
2.11
2.47
2.75
2.97
3.12
3.13
2.90
2.38
1.63
0.80
0.04
-0.52
-0.86
-1.05
-1.25
-1.59
-2.15
-2.94
-3.86
-4.77
-5.52
-6.03
-6.29
-6.36
-6.35
-6.29
-6.17
-5.97
-5.67
-5.31
-4.98
-4.74
-4.53
-4.25
-3.78
-3.15
-2.51
-2.08
-1.99
-2.17
-2.36
-2.24
-1.62
-0.56
0.68
1.78
2.51
2.82
2.80
2.60
2.33
2.10
2.05
2.35
3.08
4.18
5.38
6.25
6.47
5.93
4.83
3.50
2.31
1.41
0.79
0.31
-0.15
-0.63
-1.15
-1.71
-2.37
-3.17
-4.08
-4.93
-5.51
-5.67
-5.38
-4.82
-4.22
-3.80
-3.66
-3.78
-4.07
-4.41
-4.71
-4.79
-4.54
-3.79
-2.52
-0.90
0.74
2.05
2.85
3.18
3.39
3.84
4.78
6.07
7.34
8.07
7.89
6.77
5.01
3.16
1.70
0.94
0.92
1.45
2.23
2.94
3.36
3.35
2.89
2.04
0.91
-0.35
-1.58
-2.69
-3.69
-4.68
-5.90
-7.52
-9.60
-11.94
-14.17
-15.85
-16.70
-16.70
-16.15
-15.52
-15.22
-15.49
-16.30
-17.39
-18.42
-19.02
-18.93
-18.02
-16.33
-14.11
-11.73
-9.55
-7.79
-6.46
-5.38
-4.27
-2.94
-1.38
0.38
2.28
4.40
6.90
9.88
13.24
16.73
20.11
23.37
26.74
30.51
34.77
39.17
42.98
45.38
45.91
44.62
42.11
39.12
36.19
33.49
30.80
27.77
24.12
19.78
14.86
9.59
4.34
-0.53
-4.66
-7.80
-9.93
-11.24
-12.02
-12.59
-13.14
-13.71
-14.32
-14.99
-15.85
-16.97
-18.30
-19.57
-20.37
-20.36
-19.42
-17.81
-15.94
-14.26
-12.95
-11.96
-11.06
-10.00
-8.69
-7.23
-5.83
-4.69
-3.88
-3.38
-3.02
-2.65
-2.15
-1.47
-0.66
0.18
0.94
1.52
1.86
2.04
2.16
2.36
2.70
3.17
3.62
3.89
3.88
3.63
3.29
3.02
2.94
3.00
3.07
2.97
2.59
1.95
1.13
0.28
-0.48
-1.08
-1.53
-1.83
-2.05
-2.24
-2.48
-2.85
-3.40
-4.17
-5.17
-6.29
-7.36
-8.17
-8.54
-8.40
-7.82
-6.93
-5.92
-4.95
-4.14
-3.54
-3.14
-2.88
-2.65
-2.38
-2.04
-1.65
-1.26
-0.92
-0.64
-0.40
-0.13
0.18
0.50
0.77
0.94
1.02
1.05
1.09
1.21
1.43
1.73
2.06
2.39
2.67
2.86
2.95
2.87
2.62
2.18
1.55
0.80
0.01
-0.67
-1.13
-1.32
-1.30
-1.22
-1.28
-1.59
-2.16
-2.87
-3.55
-4.04
-4.29
-4.35
-4.31
-4.22
-4.09
-3.88
-3.55
-3.07
-2.44
-1.70
-0.90
-0.05
0.85
1.78
2.69
3.48
4.03
4.29
4.28
4.15
4.05
4.13
4.40
4.74
5.00
5.03
4.77
4.25
3.61
3.00
2.57
2.41
2.58
3.05
3.75
4.58
5.39
6.03
6.33
6.09
5.23
3.79
1.97
0.12
-1.42
-2.48
-3.05
-3.27
-3.36
-3.43
-3.54
-3.65
-3.79
-3.94
-4.15
-4.43
-4.70
-4.88
-4.87
-4.63
-4.11
-3.37
-2.54
-1.81
-1.39
-1.35
-1.61
-1.96
-2.20
-2.32
-2.52
-3.11
-4.27
-5.92
-7.68
-9.09
-9.84
-9.97
-9.76
-9.55
-9.47
-9.37
-8.98
-8.05
-6.62
-4.90
-3.23
-1.87
-0.93
-0.41
-0.30
-0.56
-1.05
-1.57
-1.84
-1.68
-1.01
0.07
1.36
2.80
4.49
6.61
9.31
12.54
16.10
19.65
22.81
25.19
26.44
26.34
24.83
22.11
18.64
14.94
11.41
8.20
5.27
2.55
0.08
-2.01
-3.62
-4.75
-5.59
-6.33
-7.01
-7.49
-7.53
-7.02
-6.02
-4.80
-3.67
-2.81
-2.18
-1.61
-0.93
-0.13
0.65
1.25
1.55
1.56
1.37
1.07
0.73
0.40
0.20
0.30
0.83
1.82
3.10
4.31
5.08
5.22
4.77
4.04
3.43
3.26
3.57
4.12
4.51
4.38
3.67
2.64
1.81
1.65
2.34
3.65
5.06
6.04
6.22
5.48
3.80
1.29
-1.65
-4.07
-4.51
-1.49
5.51
15.45
25.76
33.27
35.67
32.57
25.57
17.40
10.54
6.23
4.24
3.51
3.08
2.59
2.36
2.85
4.25
6.31
8.53
10.46
11.93
13.14
14.51
16.48
19.26
22.75
26.57
30.20
33.12
34.96
35.59
35.20
34.18
32.93
31.59
29.80
26.65
21.05
12.16
0.02
-14.37
-29.12
-42.06
-51.48
-56.60
-57.78
-56.09
-52.76
-48.63
-44.01
-38.79
-32.73
-25.58
-16.99
-6.54
6.14
20.68
35.63
48.53
56.93
59.91
58.93
57.66
60.48
70.69
89.09
113.86
141.69
169.13
193.98
215.52
234.32
251.41
267.57
282.82
296.37
307.06
313.80
316.23
314.69
309.84
301.97
290.47
273.90
250.83
220.85
185.08
146.05
106.64
68.93
33.48
-0.68
-35.33
-72.05
-111.39
-152.61
-194.16
-234.29
-272.01
-307.25
-340.99
-374.73
-410.40
-450.24
-496.37
-549.71
-608.52
-667.22
-716.91
-747.66
-751.94
-727.65
-678.90
-614.35
-543.48
-473.47
-407.56
-345.78
-286.95
-230.23
-175.28
-121.30
-66.37
-8.31
53.09
114.08
166.82
202.05
212.81
197.94
163.06
118.79
77.07
47.39
34.62
39.03
57.86
86.93
121.60
156.83
187.06
206.66
211.19
199.20
173.17
139.18
105.21
78.27
62.21
56.95
59.69
67.18
77.33
89.42
102.73
115.17
123.13
122.91
112.76
94.39
72.83
54.50
44.50
44.60
52.63
63.67
72.16
74.01
67.91
55.50
40.44
26.80
17.66
14.14
15.30
19.10
23.46
27.05
29.53
31.02
31.68
31.56
30.83
30.15
30.59
33.20
38.29
44.86
50.68
53.17
50.57
42.71
31.11
18.30
6.67
-2.18
-7.77
-10.45
-10.93
-10.08
-8.78
-8.05
-8.89
-12.11
-17.78
-25.05
-32.33
-37.76
-39.89
-38.22
-33.26
-26.36
-19.14
-12.98
-8.59
-5.91
-4.35
-3.12
-1.74
-0.24
0.91
1.13
0.09
-2.01
-4.59
-6.85
-8.16
-8.21
-6.94
-4.44
-0.85
3.63
8.56
13.33
17.26
19.76
20.64
20.15
18.83
17.35
16.19
15.56
15.35
15.33
15.29
15.26
15.53
16.46
18.24
20.70
23.25
25.18
25.92
25.30
23.58
21.26
18.79
16.36
13.97
11.49
8.92
6.40
4.19
2.56
1.62
1.37
1.73
2.60
3.79
5.11
6.35
7.34
8.08
8.80
9.88
11.71
14.32
17.32
19.87
21.07
20.40
18.07
15.08
12.82
12.59
15.07
20.11
26.83
33.83
39.62
42.78
42.33
37.97
30.18
20.24
9.80
0.28
-7.72
-14.59
-21.41
-29.23
-38.31
-47.81
-56.06
-61.40
-62.97
-61.20
-57.45
-53.37
-49.98
-47.38
-44.93
-41.76
-37.42
-32.10
-26.51
-21.46
-17.57
-15.14
-14.20
-14.66
-16.40
-19.22
-22.77
-26.67
-30.48
-33.88
-36.61
-38.48
-39.40
-39.36
-38.57
-37.43
-36.43
-35.89
-35.73
-35.34
-33.78
-30.14
-23.99
-15.62
-6.04
3.36
11.26
16.83
19.98
21.21
21.36
21.29
21.65
22.80
24.84
27.65
30.91
34.03
36.29
36.99
35.79
32.88
29.00
25.17
22.29
20.75
20.31
20.29
19.90
18.56
16.06
12.59
8.60
4.63
1.15
-1.44
-2.94
-3.36
-2.96
-2.24
-1.75
-1.94
-2.90
-4.35
-5.74
-6.52
-6.32
-5.20
-3.51
-1.75
-0.25
0.89
1.76
2.51
3.15
3.56
3.62
3.28
2.71
2.19
1.91
1.84
1.73
1.25
0.17
-1.39
-3.10
-4.48
-5.15
-4.93
-3.82
-2.00
0.36
2.98
5.59
7.91
9.66
10.71
11.03
10.72
9.85
8.52
6.78
4.69
2.42
0.18
-1.78
-3.33
-4.42
-5.13
-5.59
-5.87
-5.97
-5.84
-5.42
-4.72
-3.86
-2.98
-2.26
-1.73
-1.26
-0.58
0.54
2.20
4.24
6.36
8.21
9.54
10.31
10.60
10.54
10.28
9.89
9.42
8.90
8.37
7.79
7.16
6.52
5.98
5.73
5.91
6.55
7.52
8.59
9.54
10.25
10.72
10.96
11.05
11.04
11.03
11.15
11.56
12.30
13.26
14.16
14.65
14.52
13.72
12.41
10.89
9.43
8.22
7.29
6.56
5.92
5.27
4.55
3.81
3.08
2.39
1.76
1.12
0.42
-0.42
-1.45
-2.68
-4.15
-5.82
-7.64
-9.45
-11.07
-12.32
-13.08
-13.38
-13.31
-13.05
-12.77
-12.54
-12.33
-12.02
-11.52
-10.74
-9.71
-8.48
-7.12
-5.64
-4.03
-2.27
-0.39
1.46
3.06
4.13
4.46
4.00
2.90
1.43
-0.10
-1.41
-2.41
-3.09
-3.52
-3.76
-3.81
-3.70
-3.46
-3.22
-3.12
-3.30
-3.80
-4.55
-5.39
-6.10
-6.48
-6.35
-5.64
-4.39
-2.77
-1.05
0.50
1.69
2.43
2.73
2.71
2.52
2.27
2.02
1.75
1.38
0.86
0.21
-0.39
-0.66
-0.37
0.54
1.89
3.28
4.33
4.83
4.81
4.55
4.35
4.46
4.92
5.63
6.41
7.08
7.52
7.67
7.57
7.29
6.95
6.65
6.45
6.38
6.43
6.58
6.82
7.12
7.45
7.73
7.86
7.70
7.14
6.18
4.90
3.54
2.32
1.48
1.12
1.18
1.44
1.61
1.39
0.58
-0.85
-2.74
-4.89
-7.03
-8.95
-10.52
-11.63
-12.25
-12.42
-12.19
-11.69
-11.01
-10.21
-9.31
-8.32
-7.22
-6.04
-4.80
-3.47
-2.00
-0.31
1.58
3.55
5.43
6.99
8.12
8.75
8.90
8.65
8.12
7.51
7.03
6.90
7.21
7.84
8.53
8.95
8.83
8.10
6.89
5.43
3.98
2.68
1.58
0.66
-0.09
-0.73
-1.29
-1.88
-2.59
-3.49
-4.58
-5.75
-6.89
-7.85
-8.57
-9.05
-9.31
-9.33
-9.06
-8.39
-7.29
-5.80
-4.08
-2.36
-0.88
0.15
0.67
0.74
0.57
0.39
0.34
0.40
0.45
0.35
0.05
-0.27
-0.37
0.05
1.04
2.46
3.96
5.20
5.95
6.19
6.14
6.06
6.22
6.76
7.65
8.70
9.60
10.00
9.59
8.32
6.36
4.20
2.40
1.39
1.22
1.59
1.98
1.89
1.14
-0.06
-1.22
-1.90
-1.88
-1.33
-0.66
-0.25
-0.28
-0.65
-1.11
-1.46
-1.72
-2.06
-2.66
-3.58
-4.68
-5.72
-6.50
-7.01
-7.41
-7.85
-8.38
-8.86
-9.03
-8.74
-7.99
-6.95
-5.83
-4.78
-3.74
-2.63
-1.38
-0.05
1.16
2.02
2.40
2.34
2.03
1.70
1.50
1.51
1.70
2.06
2.55
3.11
3.69
4.16
4.36
4.16
3.50
2.37
0.89
-0.73
-2.20
-3.25
-3.66
-3.35
-2.41
-1.02
0.54
2.03
3.26
4.18
4.80
5.19
5.45
5.62
5.75
5.88
5.88
5.50
4.34
2.05
-1.45
-5.78
-10.15
-13.57
-15.31
-15.18
-13.61
-11.47
-9.55
-8.31
-7.69
-7.28
-6.65
-5.55
-4.02
-2.25
-0.49
1.13
2.52
3.68
4.53
5.03
5.20
5.11
4.93
4.81
4.77
4.74
4.55
4.07
3.28
2.26
1.18
0.17
-0.65
-1.22
-1.53
-1.58
-1.38
-1.04
-0.68
-0.48
-0.58
-1.07
-1.88
-2.87
-3.86
-4.71
-5.42
-6.03
-6.62
-7.24
-7.87
-8.44
-8.89
-9.13
-9.12
-8.78
-8.04
-6.85
-5.23
-3.34
-1.38
0.38
1.77
2.76
3.48
4.18
5.09
6.37
7.99
9.77
11.42
12.69
13.47
13.79
13.82
13.76
13.74
13.70
13.50
12.94
11.95
10.66
9.27
8.01
6.96
6.07
5.17
4.15
3.02
1.90
0.91
0.10
-0.59
-1.29
-2.06
-2.88
-3.64
-4.23
-4.63
-4.94
-5.30
-5.82
-6.51
-7.26
-7.91
-8.26
-8.22
-7.83
-7.20
-6.50
-5.86
-5.34
-4.89
-4.42
-3.82
-3.09
-2.27
-1.50
-0.89
-0.51
-0.30
-0.11
0.23
0.83
1.67
2.56
3.29
3.69
3.78
3.74
3.81
4.21
4.96
5.88
6.72
7.21
7.24
6.89
6.32
5.76
5.35
5.11
4.99
4.82
4.43
3.71
2.60
1.18
-0.40
-1.88
-3.07
-3.83
-4.16
-4.18
-4.08
-4.06
-4.26
-4.71
-5.36
-6.07
-6.70
-7.13
-7.31
-7.26
-7.08
-6.88
-6.73
-6.65
-6.59
-6.39
-5.93
-5.15
-4.08
-2.91
-1.84
-1.06
-0.60
-0.40
-0.27
-0.15
0.00
0.06
-0.09
-0.47
-0.96
-1.37
-1.48
-1.22
-0.65
0.07
0.73
1.19
1.43
1.47
1.37
1.23
1.16
1.33
1.87
2.80
3.99
5.12
5.79
5.71
4.81
3.29
1.52
-0.11
-1.31
-2.05
-2.41
-2.59
-2.71
-2.80
-2.82
-2.76
-2.62
-2.50
-2.53
-2.76
-3.13
-3.45
-3.51
-3.13
-2.29
-1.11
0.20
1.36
2.19
2.61
2.68
2.54
2.39
2.38
2.57
2.87
3.13
3.22
3.09
2.80
2.50
2.34
2.42
2.72
3.19
3.73
4.26
4.70
4.98
5.05
4.94
4.74
4.53
4.36
4.15
3.78
3.14
2.22
1.20
0.25
-0.43
-0.82
-1.03
-1.22
-1.50
-1.92
-2.45
-3.04
-3.61
-4.10
-4.40
-4.42
-4.09
-3.45
-2.66
-1.98
-1.53
-1.34
-1.25
-1.06
-0.61
0.08
0.87
1.62
2.19
2.58
2.90
3.25
3.67
4.12
4.48
4.61
4.41
3.87
3.13
2.37
1.84
1.68
1.90
2.35
2.82
3.17
3.33
3.36
3.30
3.16
2.87
2.36
1.61
0.73
-0.06
-0.58
-0.69
-0.44
-0.01
0.36
0.47
0.21
-0.39
-1.18
-1.97
-2.56
-2.87
-2.88
-2.73
-2.54
-2.47
-2.58
-2.85
-3.26
-3.75
-4.31
-4.94
-5.67
-6.44
-7.18
-7.78
-8.19
-8.43
-8.52
-8.55
-8.50
-8.34
-7.96
-7.30
-6.35
-5.17
-3.94
-2.81
-1.88
-1.14
-0.48
0.29
1.29
2.49
3.77
4.87
5.58
5.85
5.76
5.52
5.35
5.40
5.71
6.22
6.76
7.14
7.24
7.02
6.53
5.88
5.15
4.38
3.58
2.72
1.82
0.97
0.26
-0.20
-0.44
-0.54
-0.68
-0.98
-1.46
-2.09
-2.76
-3.36
-3.87
-4.32
-4.82
-5.50
-6.38
-7.41
-8.46
-9.34
-9.91
-10.13
-10.02
-9.71
-9.32
-8.93
-8.50
-7.96
-7.17
-6.09
-4.76
-3.31
-1.88
-0.53
0.74
1.97
3.21
4.47
5.67
6.70
7.50
8.04
8.35
8.49
8.51
8.46
8.39
8.30
8.19
8.04
7.75
7.22
6.40
5.29
4.05
2.89
2.03
1.60
1.55
1.68
1.75
1.59
1.13
0.47
-0.27
-0.97
-1.56
-2.06
-2.51
-2.95
-3.40
-3.90
-4.48
-5.18
-5.99
-6.84
-7.54
-7.95
-7.93
-7.50
-6.78
-5.94
-5.08
-4.27
-3.46
-2.59
-1.66
-0.73
0.02
0.50
0.68
0.68
0.69
0.87
1.29
1.85
2.36
2.57
2.35
1.74
0.97
0.34
0.10
0.35
0.97
1.75
2.42
2.87
3.09
3.16
3.17
3.16
3.06
2.81
2.37
1.78
1.17
0.68
0.38
0.24
0.21
0.19
0.17
0.18
0.26
0.37
0.38
0.09
-0.66
-1.86
-3.29
-4.55
-5.25
-5.17
-4.36
-3.09
-1.70
-0.47
0.53
1.37
2.19
3.02
3.72
4.07
3.91
3.30
2.53
2.01
2.06
2.75
3.85
4.96
5.73
5.97
5.72
5.16
4.53
4.00
3.67
3.58
3.71
4.00
4.31
4.47
4.34
3.89
3.21
2.47
1.82
1.30
0.90
0.56
0.25
-0.01
-0.16
-0.20
-0.15
-0.11
-0.18
-0.36
-0.57
-0.72
-0.75
-0.70
-0.73
-0.99
-1.55
-2.33
-3.11
-3.61
-3.65
-3.14
-2.16
-0.90
0.52
2.07
3.78
5.66
7.61
9.42
10.87
11.83
12.40
12.80
13.25
13.71
13.86
13.21
11.35
8.21
4.13
-0.24
-4.15
-7.06
-8.78
-9.41
-9.29
-8.75
-8.00
-7.12
-6.08
-4.88
-3.66
-2.64
-2.11
-2.26
-3.06
-4.22
-5.36
-6.14
-6.36
-6.04
-5.38
-4.67
-4.19
-4.14
-4.62
-5.56
-6.79
-8.08
-9.25
-10.21
-10.93
-11.42
-11.62
-11.41
-10.69
-9.50
-8.04
-6.64
-5.56
-4.90
-4.52
-4.17
-3.62
-2.82
-1.85
-0.87
0.00
0.77
1.44
2.03
2.48
2.71
2.71
2.58
2.50
2.63
3.03
3.57
4.06
4.32
4.31
4.10
3.88
3.75
3.69
3.57
3.28
2.76
2.11
1.47
0.97
0.62
0.36
0.06
-0.35
-0.86
-1.44
-2.03
-2.59
-3.14
-3.63
-4.01
-4.22
-4.26
-4.23
-4.28
-4.54
-5.02
-5.60
-6.05
-6.16
-5.85
-5.22
-4.46
-3.77
-3.25
-2.83
-2.41
-1.84
-1.15
-0.44
0.10
0.38
0.45
0.49
0.70
1.22
2.01
2.84
3.46
3.73
3.64
3.37
3.10
3.00
3.08
3.32
3.64
3.99
4.33
4.60
4.77
4.78
4.62
4.29
3.85
3.33
2.77
2.23
1.76
1.46
1.37
1.42
1.43
1.18
0.56
-0.39
-1.46
-2.37
-2.90
-3.03
-2.83
-2.52
-2.25
-2.12
-2.15
-2.28
-2.49
-2.74
-2.98
-3.12
-3.05
-2.66
-1.89
-0.80
0.44
1.57
2.34
2.65
2.57
2.35
2.28
2.57
3.25
4.19
5.10
5.74
5.99
5.88
5.57
5.21
4.92
4.66
4.37
3.95
3.46
2.96
2.61
2.43
2.35
2.22
1.86
1.22
0.39
-0.41
-1.00
-1.32
-1.45
-1.55
-1.79
-2.22
-2.81
-3.44
-3.99
-4.43
-4.75
-5.02
-5.28
-5.54
-5.81
-6.08
-6.36
-6.61
-6.81
-6.88
-6.73
-6.33
-5.74
-5.12
-4.62
-4.32
-4.19
-4.09
-3.88
-3.46
-2.83
-2.06
-1.20
-0.28
0.70
1.76
2.88
3.96
4.88
5.55
5.94
6.09
6.08
6.00
5.90
5.80
5.71
5.65
5.63
5.66
5.66
5.52
5.18
4.57
3.79
2.99
2.34
1.91
1.64
1.36
0.93
0.28
-0.49
-1.22
-1.79
-2.18
-2.45
-2.68
-2.91
-3.09
-3.20
-3.29
-3.49
-3.98
-4.82
-5.87
-6.82
-7.34
-7.21
-6.48
-5.42
-4.39
-3.66
-3.31
-3.19
-3.09
-2.82
-2.33
-1.65
-0.89
-0.12
0.62
1.28
1.82
2.22
2.47
2.66
2.90
3.24
3.63
3.94
4.04
3.89
3.61
3.41
3.44
3.76
4.24
4.70
4.97
4.92
4.58
3.97
3.11
2.09
1.07
0.26
-0.08
0.14
0.78
1.52
1.98
1.96
1.55
1.02
0.67
0.60
0.63
0.44
-0.23
-1.41
-2.90
-4.39
-5.64
-6.56
-7.21
-7.69
-8.05
-8.26
-8.26
-8.04
-7.60
-7.04
-6.42
-5.76
-5.05
-4.26
-3.34
-2.32
-1.29
-0.37
0.34
0.82
1.15
1.51
2.04
2.79
3.63
4.38
4.83
4.87
4.57
4.08
3.61
3.30
3.17
3.15
3.15
3.06
2.90
2.68
2.44
2.24
2.10
2.02
1.97
1.94
1.91
1.88
1.87
1.85
1.80
1.64
1.33
0.84
0.23
-0.41
-1.00
-1.49
-1.90
-2.26
-2.61
-2.96
-3.28
-3.54
-3.75
-3.93
-4.05
-4.07
-3.85
-3.30
-2.38
-1.16
0.16
1.33
2.18
2.61
2.67
2.48
2.24
2.08
2.09
2.26
2.49
2.66
2.66
2.44
2.07
1.69
1.47
1.52
1.85
2.36
2.91
3.34
3.58
3.63
3.54
3.38
3.21
3.05
2.92
2.83
2.75
2.65
2.44
2.09
1.60
1.07
0.60
0.26
0.06
-0.07
-0.26
-0.61
-1.16
-1.92
-2.84
-3.84
-4.90
-5.92
-6.83
-7.51
-7.82
-7.72
-7.25
-6.52
-5.68
-4.86
-4.09
-3.39
-2.74
-2.17
-1.74
-1.51
-1.41
-1.28
-0.91
-0.13
1.03
2.39
3.65
4.60
5.19
5.52
5.77
6.08
6.48
6.87
7.18
7.34
7.37
7.30
7.15
6.90
6.52
6.04
5.51
5.04
4.69
4.47
4.28
4.03
3.58
2.91
2.10
1.32
0.74
0.40
0.24
0.05
-0.37
-1.12
-2.17
-3.41
-4.71
-6.03
-7.36
-8.67
-9.86
-10.79
-11.31
-11.40
-11.17
-10.77
-10.27
-9.65
-8.81
-7.68
-6.26
-4.73
-3.28
-2.04
-1.08
-0.28
0.46
1.24
2.08
2.97
3.83
4.57
5.11
5.39
5.43
5.31
5.20
5.34
5.91
6.89
8.10
9.16
9.73
9.59
8.80
7.60
6.32
5.18
4.25
3.47
2.70
1.85
0.96
0.10
-0.64
-1.21
-1.62
-1.94
-2.25
-2.60
-3.02
-3.54
-4.16
-4.93
-5.90
-7.04
-8.32
-9.60
-10.77
-11.67
-12.20
-12.33
-12.07
-11.51
-10.73
-9.82
-8.83
-7.78
-6.67
-5.52
-4.41
-3.44
-2.71
-2.27
-2.01
-1.79
-1.38
-0.62
0.51
1.87
3.24
4.40
5.22
5.68
5.92
6.08
6.27
6.52
6.77
6.97
7.08
7.09
7.02
6.92
6.79
6.61
6.34
5.93
5.35
4.60
3.76
2.91
2.12
1.44
0.85
0.30
-0.23
-0.77
-1.34
-1.92
-2.54
-3.18
-3.82
-4.41
-4.88
-5.19
-5.35
-5.40
-5.33
-5.15
-4.84
-4.37
-3.78
-3.11
-2.41
-1.68
-0.92
-0.13
0.68
1.48
2.24
2.97
3.66
4.33
4.95
5.49
5.90
6.19
6.42
6.66
6.93
7.20
7.41
7.48
7.43
7.28
7.11
6.91
6.61
6.16
5.53
4.79
4.05
3.39
2.82
2.21
1.43
0.46
-0.56
-1.44
-2.00
-2.21
-2.20
-2.19
-2.39
-2.91
-3.74
-4.74
-5.83
-6.93
-8.03
-9.13
-10.20
-11.17
-11.94
-12.38
-12.42
-12.02
-11.23
-10.14
-8.90
-7.58
-6.23
-4.84
-3.41
-1.94
-0.48
0.91
2.22
3.47
4.77
6.23
7.83
9.42
10.72
11.42
11.35
10.59
9.46
8.37
7.69
7.51
7.71
7.99
8.05
7.72
6.99
5.97
4.81
3.69
2.72
2.00
1.53
1.22
0.94
0.51
-0.19
-1.15
-2.25
-3.29
-4.13
-4.71
-5.11
-5.43
-5.76
-6.15
-6.64
-7.23
-7.93
-8.72
-9.54
-10.28
-10.76
-10.87
-10.58
-9.98
-9.22
-8.44
-7.67
-6.86
-5.89
-4.64
-3.11
-1.43
0.25
1.76
3.04
4.13
5.13
6.07
6.94
7.63
8.00
8.01
7.74
7.33
7.00
6.90
7.07
7.45
7.90
8.22
8.31
8.06
7.50
6.67
5.64
4.47
3.25
2.05
0.97
0.13
-0.40
-0.64
-0.67
-0.68
-0.79
-1.10
-1.62
-2.24
-2.85
-3.33
-3.65
-3.80
-3.86
-3.95
-4.23
-4.76
-5.56
-6.50
-7.44
-8.26
-8.92
-9.50
-10.02
-10.44
-10.56
-10.16
-9.12
-7.53
-5.67
-3.88
-2.36
-1.09
0.12
1.45
2.96
4.54
5.94
6.95
7.51
7.67
7.64
7.61
7.73
8.03
8.49
8.97
9.29
9.27
8.73
7.67
6.20
4.61
3.20
2.23
1.77
1.76
2.00
2.25
2.34
2.21
1.84
1.31
0.67
-0.03
-0.75
-1.48
-2.19
-2.85
-3.34
-3.59
-3.53
-3.26
-2.93
-2.81
-3.09
-3.81
-4.85
-6.00
-7.08
-7.98
-8.65
-8.99
-8.81
-7.87
-6.07
-3.57
-0.82
1.58
3.16
3.79
3.70
3.36
3.19
3.40
3.95
4.57
5.03
5.20
5.13
4.95
4.76
4.63
4.58
4.61
4.69
4.82
4.98
5.12
5.19
5.18
5.05
4.77
4.34
3.74
2.99
2.16
1.34
0.60
-0.05
-0.69
-1.44
-2.35
-3.37
-4.35
-5.14
-5.72
-6.23
-6.87
-7.82
-9.07
-10.37
-11.32
-11.56
-10.90
-9.43
-7.49
-5.52
-3.96
-3.11
-3.06
-3.64
-4.48
-5.04
-4.78
-3.34
-0.74
2.59
5.94
8.58
9.98
10.06
9.09
7.60
6.11
5.01
4.47
4.54
5.16
6.23
7.57
8.92
9.96
10.40
10.07
9.07
7.67
6.37
5.55
5.46
6.05
6.98
7.75
7.94
7.37
6.20
4.88
3.88
3.57
4.06
5.11
6.20
6.73
6.35
5.07
3.35
1.86
1.28
2.01
3.90
6.32
8.36
9.38
9.40
9.04
9.31
11.07
14.74
19.87
25.39
29.97
32.72
33.51
32.83
31.49
30.33
30.19
31.59
34.31
37.01
37.17
31.59
17.31
-7.16
-40.87
-78.90
-113.37
-136.59
-144.65
-138.82
-123.69
-104.16
-83.44
-62.90
-43.04
-24.75
-9.65
0.62
5.46
5.77
3.70
1.72
1.64
4.09
8.46
13.21
16.69
17.91
16.93
14.60
12.12
10.45
10.05
10.79
12.06
13.15
13.62
13.47
13.03
12.81
13.16
14.25
15.92
17.74
19.19
19.88
19.74
19.02
18.21
17.84
18.34
19.74
21.77
23.97
25.88
27.33
28.31
28.87
29.09
28.94
28.42
27.21
25.10
21.98
17.90
13.07
7.78
2.44
-2.67
-7.43
-11.82
-15.82
-19.36
-22.13
-23.77
-23.94
-22.58
-19.97
-16.71
-13.40
-10.70
-8.98
-8.41
-8.81
-9.58
-10.01
-9.44
-7.53
-4.35
-0.44
3.37
6.49
8.89
11.04
13.66
17.30
22.15
28.06
34.59
41.13
47.32
52.96
58.04
62.48
66.15
68.95
70.83
71.86
72.21
72.23
72.33
72.86
73.67
74.30
73.82
70.92
66.10
59.75
52.76
46.16
40.87
37.24
35.01
33.42
31.50
28.62
24.42
18.97
12.54
5.58
-1.21
-6.79
-9.89
-9.57
-5.72
0.54
7.13
11.74
12.83
9.93
3.95
-3.44
-10.70
-16.69
-21.15
-24.15
-25.90
-26.51
-26.15
-24.96
-23.21
-21.38
-19.98
-19.70
-20.80
-23.08
-25.81
-28.03
-28.95
-28.44
-27.05
-25.88
-26.03
-28.06
-31.81
-36.55
-41.42
-45.95
-50.10
-54.03
-57.79
-61.15
-63.75
-65.37
-66.15
-66.57
-67.27
-68.66
-70.66
-72.78
-74.50
-75.33
-75.23
-74.50
-73.55
-72.68
-72.00
-71.41
-70.75
-70.05
-69.38
-68.88
-68.64
-68.58
-68.58
-68.41
-67.96
-67.19
-66.04
-64.25
-61.56
-57.70
-52.58
-46.45
-39.60
-32.44
-25.23
-18.17
-11.32
-4.86
0.99
6.06
10.21
13.61
16.45
18.99
21.39
23.64
25.68
27.39
28.72
29.65
30.22
30.42
30.27
29.88
29.26
28.46
27.37
25.94
24.09
21.87
19.48
17.16
15.15
13.54
12.33
11.37
10.49
9.52
8.47
7.42
6.52
5.93
5.49
5.10
4.52
3.62
2.35
0.80
-1.01
-3.14
-5.71
-8.84
-12.28
-15.67
-18.45
-20.19
-20.74
-20.27
-19.18
-17.79
-16.17
-14.15
-11.52
-8.08
-3.97
0.39
4.51
7.99
10.69
12.78
14.48
15.91
17.11
17.92
18.15
17.75
16.73
15.33
13.75
12.22
10.93
10.16
10.00
10.51
11.63
13.03
14.39
15.28
15.51
14.99
13.90
12.38
10.46
8.25
5.71
3.01
0.39
-1.81
-3.31
-3.94
-3.79
-3.09
-2.06
-1.08
-0.29
0.15
0.15
-0.28
-0.97
-1.70
-2.12
-2.02
-1.54
-0.92
-0.41
-0.25
-0.37
-0.68
-1.02
-1.28
-1.40
-1.55
-1.72
-1.86
-1.87
-1.41
-0.26
1.56
3.94
6.55
8.86
10.49
11.31
11.47
11.42
11.56
12.11
13.11
14.37
15.52
16.29
16.44
15.76
14.21
11.79
8.60
5.01
1.36
-1.98
-4.70
-6.68
-7.87
-8.21
-7.77
-6.49
-4.38
-2.04
-0.30
0.17
-0.80
-2.64
-4.38
-5.16
-4.52
-2.63
-0.96
-1.21
-4.58
-10.68
-17.64
-23.16
-25.49
-23.97
-19.04
-13.02
-8.51
-7.42
-9.86
-14.42
-19.29
-22.72
-23.02
-17.93
-6.91
9.03
26.78
41.96
49.63
45.29
26.53
-5.85
-39.52
-59.58
-55.50
-28.90
10.07
51.09
88.12
119.16
141.76
157.87
167.16
168.33
160.08
143.69
122.66
100.39
80.33
62.10
42.96
17.88
-17.27
-64.36
-118.79
-169.39
-202.09
-205.78
-177.16
-121.78
-53.13
11.41
54.16
64.61
42.68
-3.01
-60.12
-117.57
-168.04
-208.16
-221.60
-199.12
-145.00
-74.61
-3.16
60.58
113.30
150.76
175.75
189.99
192.70
183.82
164.78
137.39
103.23
65.88
29.03
-2.80
-27.23
-45.39
-59.05
-68.81
-74.07
-74.80
-71.14
-64.99
-57.75
-50.79
-45.66
-42.94
-41.93
-41.08
-43.29
-45.92
-47.99
-48.49
-46.64
-42.05
-34.36
-23.58
-10.62
1.33
9.23
10.13
4.39
-4.00
-8.66
-3.09
16.72
56.56
114.71
184.92
258.01
324.84
377.86
412.07
425.68
420.81
403.18
379.86
356.66
337.19
322.83
313.18
306.57
301.04
294.88
286.91
275.52
255.53
223.01
177.39
121.69
60.26
-3.17
-66.23
-127.70
-187.32
-250.99
-322.42
-400.18
-477.62
-546.51
-600.66
-636.78
-654.46
-655.82
-652.91
-656.57
-671.99
-697.85
-730.31
-766.53
-805.24
-846.60
-840.28
-760.48
-615.96
-444.75
-285.56
-158.87
-68.06
-7.30
32.25
60.38
78.83
90.50
100.71
115.36
136.06
158.61
177.20
187.69
190.10
181.89
163.30
136.67
107.82
81.99
62.19
50.83
49.00
56.67
68.51
79.08
85.32
87.36
86.94
85.80
86.50
90.45
98.07
106.93
114.41
119.35
122.93
128.33
130.69
129.37
124.45
116.48
105.38
91.27
74.78
57.12
39.49
22.59
7.93
-3.97
-13.17
-19.98
-24.73
-27.69
-29.05
-29.15
-28.68
-27.56
-26.10
-24.52
-22.64
-19.78
-15.01
-7.59
2.49
14.23
26.59
38.11
47.99
56.54
65.33
76.56
92.06
112.36
136.09
160.91
183.98
203.35
218.88
232.29
246.55
265.01
290.48
324.40
366.16
412.33
456.81
492.12
511.54
511.54
492.89
460.09
419.18
375.16
330.42
284.98
237.76
187.92
135.64
82.09
29.37
-19.87
-63.07
-98.75
-127.65
-152.94
-178.93
-208.34
-240.39
-270.81
-294.28
-308.20
-315.42
-323.66
-341.88
-375.06
-420.76
-469.43
-508.25
-526.71
-520.60
-492.89
-451.44
-405.14
-360.29
-319.24
-281.34
-245.06
-209.92
-177.05
-148.18
-124.13
-103.78
-84.42
-63.11
-38.07
-9.46
20.95
50.94
79.24
106.31
133.98
164.32
198.00
233.21
265.79
290.53
303.20
302.28
289.71
270.22
249.57
232.62
221.80
216.65
214.40
211.29
204.19
191.84
175.22
156.94
140.00
126.28
115.81
106.97
97.63
86.34
73.03
58.87
45.44
33.82
24.28
16.45
9.83
4.24
-0.19
-3.39
-5.66
-7.63
-10.02
-13.15
-16.76
-20.12
-22.55
-23.82
-24.43
-25.32
-27.37
-30.88
-35.22
-39.15
-41.18
-40.33
-36.40
-30.03
-22.48
-15.19
-9.58
-6.74
-7.15
-10.42
-15.27
-19.94
-22.97
-23.80
-22.90
-21.42
-20.69
-21.63
-24.53
-29.04
-34.27
-38.91
-41.49
-40.82
-36.46
-29.15
-20.62
-12.91
-7.41
-4.23
-2.41
-0.83
0.83
1.93
1.65
0.10
-1.42
-1.02
2.51
8.59
14.93
18.49
17.18
11.11
2.76
-4.24
-6.84
-4.00
2.90
11.01
17.60
21.40
23.17
24.94
28.55
34.30
40.55
44.68
44.85
41.49
37.34
36.00
39.81
48.47
59.12
67.95
72.20
71.52
67.94
64.63
64.39
68.77
78.12
92.17
110.36
131.67
154.22
174.86
189.70
195.25
189.60
173.07
148.21
118.68
87.58
56.82
26.29
-5.72
-41.64
-83.33
-130.72
-181.19
-230.13
-272.70
-305.95
-330.29
-348.92
-365.36
-380.51
-391.20
-390.74
-371.88
-330.44
-267.81
-191.30
-112.03
-41.73
10.28
38.99
43.83
27.80
-3.64
-43.51
-84.60
-120.57
-147.28
-164.00
-172.58
-175.96
-175.63
-170.14
-156.00
-130.24
-93.58
-51.45
-11.98
18.56
39.18
54.10
69.40
88.70
111.09
132.55
149.40
160.64
167.50
170.80
168.99
158.55
136.77
104.65
67.57
32.89
6.11
-11.67
-23.10
-31.85
-39.70
-45.67
-47.56
-44.41
-37.52
-29.66
-23.02
-17.46
-10.51
1.04
18.73
41.14
64.00
81.89
90.57
88.60
77.71
61.77
45.14
31.15
21.47
16.21
14.46
14.84
15.89
16.24
14.86
11.22
5.54
-1.19
-7.55
-12.17
-14.40
-14.78
-14.84
-16.56
-21.59
-30.48
-42.59
-56.38
-70.08
-82.29
-92.34
-100.16
-106.10
-110.61
-114.13
-116.93
-119.03
-119.91
-118.36
-112.73
-101.48
-83.89
-60.49
-32.99
-3.65
25.48
53.20
79.32
104.47
129.85
156.82
186.24
217.93
250.29
280.61
305.99
324.48
335.94
341.86
344.46
345.44
345.23
343.09
337.93
329.19
317.03
301.93
284.00
262.67
237.07
206.85
172.88
137.14
102.10
69.76
40.81
14.54
-10.85
-37.54
-67.18
-100.03
-134.51
-167.31
-194.32
-212.04
-219.05
-216.80
-209.08
-200.38
-193.84
-189.92
-186.65
-181.26
-172.25
-160.40
-148.31
-138.58
-132.07
-127.37
-121.77
-113.18
-101.67
-89.49
-79.83
-74.90
-74.63
-76.76
-78.08
-76.19
-70.49
-62.35
-54.27
-48.68
-47.17
-50.03
-56.44
-64.82
-73.30
-80.35
-85.17
-87.95
-89.70
-91.75
-95.01
-99.39
-103.51
-104.94
-100.91
-88.98
-67.78
-37.36
0.44
41.98
82.08
115.23
137.23
146.85
146.34
140.55
134.74
132.23
133.11
134.70
133.55
127.63
117.45
105.61
94.96
86.74
79.87
71.71
59.83
43.92
26.55
12.48
6.34
10.15
22.02
36.86
48.85
54.09
52.12
45.47
37.62
30.96
25.81
21.22
16.53
12.66
11.91
16.48
26.90
41.35
56.49
69.00
77.10
80.93
82.10
82.48
83.36
85.08
87.36
89.99
93.51
99.17
108.39
121.76
138.14
154.37
165.82
167.67
156.63
132.17
96.77
54.93
11.77
-28.58
-63.70
-92.98
-117.20
-138.29
-159.34
-184.13
-215.93
-255.58
-299.66
-340.39
-367.52
-372.01
-349.51
-302.23
-238.20
-168.47
-103.47
-50.07
-10.34
18.00
39.79
60.07
81.75
104.19
123.06
131.66
123.56
95.39
48.71
-10.20
-71.75
-125.41
-162.04
-175.72
-165.44
-136.11
-98.07
-64.97
-49.55
-59.01
-92.05
-139.29
-187.36
-224.58
-245.17
-249.93
-243.42
-229.83
-210.38
-183.62
-148.05
-104.90
-58.60
-14.98
21.74
51.21
76.84
103.76
136.21
176.01
222.50
273.28
325.06
373.81
414.93
443.84
456.99
452.91
432.88
400.42
360.14
316.61
273.58
233.88
199.59
171.85
150.47
133.61
118.33
101.67
81.98
59.65
36.70
16.00
0.13
-9.49
-13.14
-12.69
-11.29
-12.52
-19.14
-31.83
-48.39
-64.48
-75.49
-78.99
-76.19
-71.76
-71.98
-82.04
-103.81
-135.05
-170.59
-203.88
-228.94
-241.18
-237.81
-217.76
-181.74
-132.21
-73.03
-9.03
54.57
112.58
160.17
193.65
211.29
213.59
202.89
182.45
155.41
124.46
91.92
59.99
31.00
6.93
-11.49
-25.49
-38.21
-53.96
-76.91
-109.85
-153.27
-204.35
-256.53
-299.93
-323.81
-320.48
-289.31
-238.00
-180.79
-133.32
-106.84
-104.63
-121.62
-147.17
-169.42
-179.18
-171.86
-147.74
-110.70
-66.56
-21.31
20.18
54.85
81.43
99.88
111.05
116.35
117.90
118.44
120.66
126.21
134.89
144.60
152.31
155.38
152.67
144.79
133.46
120.64
107.82
95.69
84.42
73.87
63.79
53.66
42.85
30.81
17.50
3.55
-10.11
-22.91
-35.20
-48.32
-63.82
-82.39
-103.11
-123.56
-140.82
-152.82
-159.21
-161.25
-161.07
-160.50
-160.40
-160.67
-160.55
-159.25
-156.29
-151.60
-145.63
-139.14
-133.04
-127.80
-123.17
-117.99
-110.55
-99.40
-84.02
-65.24
-44.89
-24.97
-6.72
10.02
26.55
44.70
65.79
90.04
116.53
143.77
170.25
194.66
215.59
231.19
239.14
237.38
225.35
204.71
179.14
152.78
128.54
106.96
86.51
64.97
40.91
14.58
-12.52
-38.73
-63.30
-86.87
-110.91
-136.70
-164.34
-192.35
-217.95
-237.91
-249.53
-251.33
-243.23
-226.58
-203.84
-178.35
-153.85
-133.87
-120.72
-114.56
-113.19
-112.75
-109.40
-100.86
-87.24
-70.75
-54.21
-39.64
-27.29
-15.91
-3.80
9.92
24.69
38.62
49.49
55.94
58.17
57.86
57.11
57.10
57.37
56.08
51.32
42.57
31.88
23.31
21.37
29.15
47.08
73.09
103.94
136.92
170.71
205.29
240.67
275.75
307.61
332.00
344.54
342.06
323.61
290.60
246.16
194.15
138.36
82.00
27.44
-23.76
-70.91
-114.31
-155.37
-196.41
-239.91
-287.15
-336.88
-384.63
-423.36
-445.49
-445.65
-422.76
-380.57
-326.34
-268.17
-212.41
-162.30
-118.09
-78.34
-41.44
-6.48
26.69
57.86
87.06
114.72
141.51
168.28
195.96
225.81
259.40
297.99
341.37
386.76
428.39
458.60
470.23
459.26
426.45
377.32
320.00
262.50
210.38
165.65
127.17
91.84
56.11
17.36
-24.89
-68.21
-107.30
-135.27
-146.04
-136.84
-109.60
-70.75
-29.15
6.69
30.92
41.31
39.13
28.54
15.64
7.27
9.22
24.43
51.83
86.65
122.39
153.49
177.22
193.92
205.36
212.78
215.88
213.47
204.93
191.35
175.33
159.63
145.54
132.22
117.56
99.66
77.92
53.34
27.76
2.83
-20.62
-42.46
-62.13
-77.93
-87.08
-87.13
-77.71
-61.77
-45.34
-35.67
-38.54
-56.05
-86.08
-123.51
-162.66
-199.23
-231.43
-259.55
-284.96
-309.25
-334.22
-362.16
-395.82
-437.01
-484.82
-534.40
-577.37
-604.29
-608.40
-588.44
-549.31
-500.08
-450.32
-406.80
-371.99
-344.76
-322.39
-302.46
-283.73
-265.84
-248.49
-230.94
-212.13
-191.17
-167.68
-141.94
-114.72
-86.80
-58.76
-30.70
-2.36
26.62
56.44
86.98
117.83
148.55
179.13
210.16
242.67
277.21
313.01
347.36
375.94
394.06
398.34
388.02
365.21
334.03
299.05
263.98
230.92
200.60
172.97
147.94
125.64
106.20
89.42
74.47
60.09
45.07
28.89
12.07
-3.96
-17.62
-28.12
-35.86
-41.97
-47.26
-51.25
-51.93
-46.62
-33.34
-11.77
16.92
50.82
87.97
126.02
161.31
188.14
199.44
188.95
153.93
96.95
25.42
-50.95
-123.24
-185.29
-233.86
-267.40
-284.74
-284.94
-268.02
-236.03
-193.33
-145.48
-97.38
-51.88
-9.67
29.75
66.40
98.94
125.10
143.13
153.15
157.67
160.46
164.78
171.89
180.66
188.56
193.24
193.83
190.99
186.11
180.05
172.57
162.56
149.06
132.18
113.40
95.07
79.49
68.01
60.53
55.82
52.12
47.86
42.20
35.21
27.62
20.33
13.78
7.69
1.17
-6.72
-16.30
-26.79
-36.37
-42.96
-45.15
-42.86
-37.41
-30.81
-24.97
-21.05
-19.18
-18.77
-18.90
-18.76
-17.87
-16.07
-13.36
-9.69
-5.05
0.56
6.92
13.57
19.76
24.70
27.63
27.91
24.96
18.06
6.49
-10.31
-32.12
-57.54
-83.99
-108.12
-126.69
-137.57
-140.48
-137.22
-131.17
-126.25
-125.60
-130.33
-138.99
-148.36
-154.88
-156.54
-153.98
-150.05
-147.96
-149.05
-151.67
-152.01
-146.26
-132.88
-113.34
-91.04
-69.18
-49.05
-29.60
-8.70
15.20
42.22
71.43
102.21
135.18
171.79
212.73
255.91
295.79
324.80
336.37
328.18
303.71
271.24
240.96
220.95
214.63
220.45
233.64
248.95
262.71
273.48
281.29
286.43
288.51
286.41
278.78
264.86
245.09
221.04
194.91
168.79
143.87
120.21
97.06
73.64
49.62
25.43
2.20
-18.72
-36.23
-49.88
-60.22
-68.52
-76.30
-84.43
-92.13
-96.80
-94.79
-83.36
-62.76
-37.29
-14.38
-1.95
-5.33
-25.07
-57.09
-94.85
-132.10
-165.25
-193.75
-219.15
-243.64
-269.11
-297.14
-329.31
-366.99
-410.06
-455.69
-497.98
-529.20
-542.69
-535.70
-510.65
-474.24
-434.65
-398.41
-368.69
-345.27
-325.93
-308.08
-289.65
-269.21
-245.61
-217.88
-185.37
-148.31
-107.83
-65.64
-23.61
17.08
56.42
95.57
136.39
180.31
227.04
274.01
316.52
349.02
367.19
369.50
357.79
336.52
311.06
285.87
263.45
244.29
227.61
212.33
197.68
183.29
169.00
154.52
139.43
123.47
106.75
89.98
74.47
61.54
52.04
45.87
41.95
38.68
34.59
29.01
22.26
15.42
9.64
5.63
3.41
2.43
1.90
1.17
-0.16
-2.27
-5.14
-8.63
-12.52
-16.39
-19.70
-21.89
-22.61
-21.87
-20.11
-18.02
-16.28
-15.26
-14.84
-14.45
-13.37
-11.06
-7.51
-3.28
0.73
3.71
5.29
5.69
5.57
5.69
6.53
8.13
10.08
11.78
12.70
12.65
11.83
10.67
9.64
8.95
8.51
8.00
7.12
5.81
4.24
2.77
1.71
1.17
0.99
0.92
0.81
0.73
0.94
1.73
3.18
5.07
6.98
8.56
9.67
10.47
11.25
12.21
13.29
14.19
14.56
14.21
13.28
12.19
11.35
11.10
11.66
13.17
15.51
18.12
19.78
18.74
13.28
2.44
-13.27
-31.91
-50.73
-67.11
-79.28
-86.58
-89.12
-87.34
-81.68
-72.65
-61.17
-48.67
-36.88
-27.29
-20.48
-15.98
-12.53
-8.69
-3.57
2.87
9.85
16.34
21.59
25.43
28.25
30.56
32.57
34.04
34.54
33.90
32.44
30.83
29.69
29.14
28.72
27.57
25.01
21.04
16.38
12.12
9.06
7.20
5.80
3.90
1.06
-2.37
-5.43
-7.22
-7.52
-6.99
-6.71
-7.44
-9.12
-10.85
-11.48
-10.34
-7.74
-4.67
-2.28
-1.26
-1.54
-2.54
-3.51
-3.95
-3.73
-3.04
-2.17
-1.36
-0.71
-0.14
0.55
1.57
3.09
5.09
7.29
9.28
10.56
10.79
9.88
8.06
5.82
3.71
2.14
1.32
1.20
1.51
1.87
1.93
1.41
0.24
-1.55
-3.80
-6.26
-8.66
-10.73
-12.25
-13.12
-13.48
-13.59
-13.80
-14.28
-14.94
-15.44
-15.31
-14.23
-12.09
-9.16
-5.89
-2.79
-0.32
1.31
2.08
2.14
1.74
1.18
0.66
0.29
0.16
0.26
0.63
1.34
2.50
4.20
6.46
9.11
11.79
13.95
14.96
14.38
12.10
8.56
4.68
1.54
-0.06
0.13
1.66
3.61
4.90
4.74
2.84
-0.48
-4.34
-7.54
-8.86
-7.56
-3.83
1.11
5.35
7.10
5.42
0.82
-5.03
-10.10
-12.97
-13.48
-12.48
-11.16
-10.15
-9.27
-7.79
-5.17
-1.70
1.51
3.14
2.43
-0.25
-3.60
-5.98
-6.37
-4.72
-1.95
0.71
2.34
2.76
2.41
1.97
1.87
2.16
2.52
2.62
2.35
1.84
1.33
0.98
0.73
0.45
0.00
-0.56
-1.08
-1.33
-1.32
-1.23
-1.47
-2.37
-3.99
-6.08
-8.20
-9.88
-10.94
-11.39
-11.37
-10.97
-10.20
-9.05
-7.69
-6.47
-5.86
-6.12
-7.06
-7.99
-8.10
-6.79
-4.08
-0.62
2.57
4.59
5.04
4.05
2.20
0.15
-1.56
-2.63
-2.99
-2.74
-2.11
-1.38
-0.75
-0.34
-0.12
0.08
0.48
1.15
2.06
3.03
3.88
4.52
5.06
5.62
6.25
6.80
6.97
6.54
5.50
4.16
2.96
2.26
2.03
1.88
1.25
-0.22
-2.47
-4.98
-7.17
-8.60
-9.28
-9.56
-10.00
-11.01
-12.71
-14.91
-17.25
-19.32
-20.75
-21.27
-20.75
-19.24
-17.14
-15.04
-13.41
-12.25
-10.84
-8.03
-2.76
5.24
15.16
25.27
33.67
39.01
40.97
40.13
37.50
33.97
30.04
25.94
21.88
18.20
15.28
13.25
11.94
10.84
9.41
7.35
4.74
1.98
-0.44
-2.14
-3.02
-3.19
-2.89
-2.36
-1.76
-1.26
-1.00
-1.16
-1.83
-2.96
-4.31
-5.53
-6.27
-6.39
-6.08
-5.80
-6.13
-7.46
-9.80
-12.67
-15.29
-16.86
-16.91
-15.46
-12.96
-10.11
-7.51
-5.45
-3.92
-2.69
-1.61
-0.64
0.05
0.30
0.02
-0.64
-1.39
-1.89
-1.87
-1.27
-0.24
0.94
1.94
2.50
2.49
1.97
1.19
0.49
0.23
0.65
1.72
3.20
4.69
5.85
6.44
6.47
6.05
5.38
4.58
3.74
2.89
2.05
1.29
0.72
0.43
0.53
0.99
1.57
1.84
1.26
-0.52
-3.42
-6.75
-9.42
-10.36
-9.02
-5.70
-1.45
2.35
4.61
5.07
4.37
3.70
4.18
6.30
9.64
13.17
15.72
16.56
15.75
13.91
11.89
10.37
9.56
9.34
9.53
9.99
10.54
10.70
9.65
6.62
1.43
-5.04
-11.08
-14.94
-15.71
-13.85
-10.86
-8.36
-7.23
-7.23
-7.42
-7.00
-5.89
-4.84
-4.84
-6.41
-9.29
-12.51
-14.92
-15.62
-14.26
-11.14
-7.26
-3.85
-2.03
-2.27
-4.13
-6.36
-7.49
-6.54
-3.50
0.59
4.28
6.45
6.80
5.87
4.55
3.51
2.84
2.31
1.65
0.99
0.81
1.64
3.76
6.82
10.04
12.49
13.51
12.92
11.03
8.41
5.70
3.46
2.03
1.53
1.74
2.27
2.68
2.68
2.35
2.01
2.05
2.63
3.61
4.59
5.20
5.27
4.90
4.31
3.62
2.74
1.43
-0.45
-2.79
-5.23
-7.23
-8.38
-8.48
-7.72
-6.60
-5.79
-5.89
-7.22
-9.64
-12.55
-14.97
-15.83
-14.33
-10.26
-4.22
2.44
8.03
11.17
11.33
9.08
5.85
3.32
2.82
4.79
8.72
13.53
17.96
20.99
21.96
20.70
17.47
13.00
8.38
4.79
3.03
3.21
4.54
5.66
5.28
2.75
-1.54
-6.44
-10.59
-13.04
-13.78
-13.50
-13.19
-13.55
-14.62
-15.94
-16.95
-17.33
-17.22
-17.08
-17.19
-17.38
-17.01
-15.24
-11.64
-6.52
-1.08
2.99
4.11
1.59
-4.09
-11.27
-17.71
-21.44
-21.47
-18.15
-12.89
-7.50
-3.33
-0.81
0.55
1.66
3.21
5.23
7.10
7.95
7.27
5.25
2.76
0.97
0.72
2.18
4.73
7.25
8.70
8.56
7.04
4.96
3.31
2.77
3.45
4.96
6.63
7.99
8.78
9.01
8.70
7.83
6.42
4.73
3.22
2.47
2.72
3.75
4.77
4.94
3.80
1.66
-0.54
-1.79
-1.53
-0.05
1.80
3.04
3.15
2.25
0.91
-0.31
-1.20
-1.94
-2.83
-3.92
-4.87
-5.19
-4.71
-3.85
-3.49
-4.41
-6.62
-9.09
-10.27
-8.99
-5.27
-0.49
3.30
4.59
3.20
0.46
-1.70
-1.75
0.67
4.68
8.84
11.99
13.73
14.45
14.84
15.35
15.97
16.33
16.03
15.03
13.66
12.42
11.66
11.32
10.98
10.11
8.54
6.56
4.88
4.23
5.02
7.05
9.69
12.08
13.55
13.83
13.08
11.86
10.83
10.63
11.72
14.29
18.28
23.37
29.01
34.52
39.32
43.08
45.85
48.00
50.02
52.05
53.73
54.25
52.73
48.66
42.20
34.00
24.83
15.09
4.64
-7.01
-20.27
-35.05
-50.72
-66.23
-80.35
-91.92
-99.93
-103.69
-102.96
-98.16
-90.41
-81.45
-73.08
-66.63
-62.37
-59.55
-56.68
-52.26
-45.44
-36.38
-26.10
-16.10
-7.87
-2.42
-0.14
-0.74
-3.46
-7.24
-11.09
-14.25
-16.41
-17.69
-18.35
-18.54
-17.93
-15.84
-11.59
-4.96
3.57
12.84
21.40
27.90
31.35
31.29
27.95
22.19
15.45
9.40
5.38
3.95
4.67
6.40
7.94
8.60
8.46
8.11
8.05
8.45
9.04
9.49
9.75
10.13
11.00
12.46
14.12
15.18
14.84
12.74
9.20
5.16
1.76
-0.12
-0.27
0.78
2.06
2.54
1.70
-0.42
-3.25
-6.09
-8.35
-9.77
-10.31
-10.17
-9.62
-9.06
-8.84
-9.20
-10.07
-11.11
-11.91
-12.15
-11.87
-11.32
-10.69
-9.85
-8.34
-5.77
-2.26
1.33
3.72
4.05
2.49
0.35
-0.53
1.16
5.46
11.17
16.54
20.31
22.06
22.00
20.36
17.04
11.80
5.03
-1.73
-6.18
-6.27
-1.58
6.22
14.00
18.68
18.68
14.59
8.54
2.95
-0.64
-2.13
-2.39
-2.58
-3.31
-4.49
-5.62
-6.29
-6.48
-6.57
-7.07
-8.26
-10.08
-12.22
-14.22
-15.78
-16.71
-17.01
-16.67
-15.69
-13.99
-11.65
-8.87
-5.96
-3.23
-0.89
0.93
2.19
2.80
2.66
1.72
0.14
-1.75
-3.54
-4.84
-5.45
-5.33
-4.65
-3.77
-3.25
-3.84
-6.35
-11.38
-18.83
-27.76
-36.47
-42.98
-45.91
-45.09
-41.75
-38.14
-36.57
-38.56
-44.30
-52.65
-61.41
-67.92
-69.43
-63.54
-48.65
-24.45
7.69
44.69
82.42
116.82
145.09
166.12
180.05
187.38
188.11
181.74
167.91
147.31
122.19
95.80
71.30
50.62
33.74
19.02
4.27
-12.09
-30.18
-48.55
-64.81
-76.64
-82.69
-82.96
-78.61
-71.25
-62.33
-52.84
-43.41
-34.72
-27.56
-22.62
-20.17
-19.90
-21.14
-23.22
-25.61
-27.88
-29.54
-30.08
-29.28
-27.52
-25.67
-24.61
-24.54
-24.67
-23.54
-20.08
-14.29
-7.49
-1.67
1.55
1.70
-0.44
-3.53
-6.27
-8.02
-8.72
-8.68
-8.21
-7.50
-6.62
-5.60
-4.57
-3.67
-3.05
-2.62
-2.05
-0.86
1.42
4.95
9.53
14.64
19.68
24.11
27.54
29.74
30.61
30.25
29.02
27.54
26.54
26.42
26.92
27.29
26.70
24.88
22.29
19.90
18.61
18.66
19.53
20.24
19.94
18.39
15.94
13.33
11.20
9.93
9.58
10.04
10.96
11.93
12.44
11.96
10.28
7.69
4.87
2.74
1.76
1.70
1.93
1.89
1.50
1.27
2.03
4.38
8.54
13.74
18.66
22.42
25.07
27.61
31.28
36.88
44.33
53.19
62.11
69.64
75.02
78.46
80.94
83.75
88.14
95.19
105.63
118.18
129.28
134.15
128.42
109.78
79.05
40.21
-3.43
-43.83
-72.22
-83.88
-80.23
-66.87
-49.75
-32.99
-18.72
-7.76
0.33
5.16
5.47
-0.09
-12.42
-32.05
-60.04
-98.44
-147.99
-208.12
-276.08
-345.87
-408.32
-453.31
-473.15
-465.64
-434.67
-388.25
-335.01
-281.42
-230.44
-182.03
-135.11
-89.30
-45.48
-4.80
32.86
69.61
108.44
151.29
197.15
241.46
277.16
297.57
299.19
283.08
253.80
216.94
176.69
134.96
92.36
49.72
8.68
-29.07
-63.05
-94.44
-124.65
-153.00
-175.35
-185.17
-176.85
-148.99
-105.98
-56.24
-8.37
32.46
66.16
96.44
127.98
163.65
203.16
243.27
279.15
305.85
319.48
318.20
302.41
274.46
237.57
194.51
146.44
92.70
32.13
-34.94
-104.53
-168.82
-218.00
-243.60
-241.55
-213.59
-166.16
-108.54
-50.78
-2.01
30.55
42.80
34.88
11.23
-20.61
-52.76
-79.94
-100.73
-116.55
-128.90
-136.92
-137.06
-125.41
-100.36
-64.29
-22.52
19.56
59.46
98.52
140.61
189.38
245.26
304.09
357.65
396.10
411.57
400.96
367.10
317.83
263.00
211.01
166.47
129.55
97.51
67.10
36.60
6.62
-20.53
-42.46
-58.09
-68.52
-76.73
-86.74
-102.44
-127.06
-162.74
-209.96
-266.79
-328.23
-386.11
-430.46
-452.26
-446.96
-417.18
-372.98
-328.74
-297.89
-287.51
-295.69
-312.84
-326.23
-325.65
-306.99
-272.63
-228.73
-181.61
-135.12
-90.27
-46.57
-3.71
37.77
77.04
113.87
148.56
181.11
210.20
232.80
244.89
243.23
226.91
197.92
160.66
120.62
83.00
51.79
29.32
16.15
11.13
11.74
14.66
16.76
15.95
11.79
5.41
-1.12
-5.61
-6.29
-2.26
6.49
19.22
34.53
50.77
66.28
79.74
90.43
98.18
103.19
105.84
106.51
105.50
103.09
99.62
95.51
91.15
86.83
82.65
78.53
74.32
69.96
65.45
60.98
56.82
53.21
50.26
47.82
45.52
42.86
39.46
35.30
30.78
26.68
23.86
22.90
23.67
25.18
25.94
24.46
20.15
13.71
7.03
2.42
1.62
4.83
10.67
16.72
20.68
21.35
19.09
15.64
13.31
14.26
19.40
27.82
36.64
41.27
36.23
16.45
-21.05
-75.63
-142.04
-210.98
-271.14
-312.43
-329.11
-321.30
-294.48
-256.86
-216.28
-177.60
-142.05
-107.92
-72.02
-31.18
16.75
72.20
133.32
195.77
253.16
298.49
326.07
333.52
322.18
296.61
262.90
226.75
192.34
161.88
135.87
113.51
93.00
71.61
45.96
13.01
-28.36
-75.62
-122.24
-158.96
-177.16
-172.31
-146.12
-105.88
-61.50
-21.75
8.37
27.89
38.31
41.37
37.98
28.57
14.64
-0.28
-11.10
-13.25
-5.06
11.08
29.33
43.15
48.50
45.97
40.51
38.93
46.23
62.99
85.09
106.10
120.92
128.51
132.00
136.21
143.94
153.49
158.97
152.97
130.53
91.77
41.61
-13.04
-66.49
-115.82
-159.89
-197.34
-225.46
-241.22
-243.62
-235.22
-221.40
-207.41
-195.56
-184.68
-172.60
-159.74
-151.00
-153.85
-173.54
-208.36
-248.43
-279.16
-287.43
-267.20
-221.59
-160.80
-97.72
-43.46
-4.57
17.44
24.94
22.59
15.85
9.84
8.50
14.10
27.20
46.93
71.38
97.87
122.95
142.73
153.81
154.49
145.87
131.92
118.32
110.59
112.44
124.74
145.69
171.62
197.88
219.71
233.00
235.05
225.18
205.18
178.97
151.69
128.27
111.97
103.55
101.23
101.44
100.00
93.37
79.65
59.06
33.74
7.22
-16.58
-34.20
-43.20
-42.63
-33.04
-16.40
4.30
25.66
44.53
58.56
66.39
67.78
63.39
54.52
42.91
30.41
18.51
7.97
-1.51
-11.13
-22.48
-36.69
-53.76
-72.33
-90.02
-104.28
-113.17
-115.91
-112.90
-105.55
-95.82
-85.87
-77.64
-72.58
-71.35
-73.62
-78.05
-82.73
-85.75
-85.64
-81.78
-74.31
-63.93
-51.51
-37.81
-23.39
-8.66
5.98
20.08
33.03
44.11
52.50
57.31
57.57
52.43
41.55
25.69
7.06
-10.77
-23.71
-28.41
-23.61
-10.83
6.04
22.15
33.45
37.90
35.85
29.26
20.61
11.98
5.15
1.81
3.58
11.03
22.01
31.14
31.18
16.68
-12.18
-48.10
-79.04
-93.80
-87.65
-65.03
-37.47
-18.18
-16.28
-33.57
-65.23
-103.20
-139.80
-169.65
-189.91
-199.53
-198.70
-188.84
-172.62
-153.56
-134.81
-117.92
-102.23
-85.49
-65.13
-40.10
-11.76
16.34
39.84
55.30
61.58
60.15
54.37
48.15
44.80
46.17
52.51
62.72
74.79
86.32
95.04
99.32
98.71
94.11
87.61
81.85
79.09
80.25
84.66
90.45
95.55
98.75
100.21
101.12
102.95
106.54
111.85
118.35
125.51
133.27
141.97
151.76
162.07
171.26
176.74
175.33
163.99
140.71
105.65
62.13
16.81
-21.20
-42.62
-40.97
-15.13
29.56
82.45
130.75
163.39
174.16
162.90
134.29
95.45
52.91
10.92
-28.94
-66.99
-104.57
-143.34
-184.91
-230.11
-278.03
-325.02
-364.94
-390.71
-397.09
-382.68
-350.70
-307.55
-260.56
-215.90
-177.66
-148.13
-128.41
-118.89
-119.09
-127.63
-142.36
-160.78
-180.31
-198.33
-212.11
-219.27
-218.69
-210.85
-197.72
-181.32
-162.32
-139.68
-111.56
-77.06
-37.51
3.66
42.42
75.72
102.40
122.76
137.35
146.24
149.26
146.81
140.60
133.28
127.44
124.51
124.47
126.28
128.97
132.36
137.15
144.32
154.41
167.12
181.21
194.75
205.39
210.61
208.03
196.17
175.61
149.66
124.16
105.56
98.46
103.55
117.18
132.91
144.05
145.90
136.68
117.10
89.28
55.86
19.47
-17.50
-53.27
-87.23
-120.13
-153.44
-188.09
-223.24
-255.72
-281.18
-296.02
-299.18
-292.53
-279.79
-264.50
-248.47
-231.39
-211.82
-188.80
-162.90
-136.08
-110.64
-87.71
-66.71
-45.86
-23.82
-0.80
21.23
39.65
52.79
60.96
66.10
70.55
75.36
79.70
81.37
78.25
69.94
58.24
46.38
37.43
33.00
32.74
35.00
37.86
40.08
41.32
41.77
41.64
41.05
40.27
39.97
41.27
45.11
51.43
58.83
64.94
67.39
64.96
58.14
48.92
39.70
32.21
26.85
22.81
18.80
13.90
7.99
1.66
-4.33
-9.47
-13.65
-17.07
-19.96
-22.63
-25.31
-28.13
-30.85
-32.65
-32.36
-28.96
-22.43
-14.14
-6.48
-1.75
-0.86
-2.56
-3.86
-1.39
6.99
21.14
38.89
57.17
73.44
86.45
96.26
103.62
109.08
112.52
113.23
110.26
103.06
91.95
78.25
64.05
51.47
41.95
35.58
31.06
26.41
19.89
10.91
0.35
-10.00
-18.55
-24.87
-30.00
-35.97
-44.68
-56.88
-71.74
-87.35
-101.55
-112.93
-121.27
-127.26
-131.96
-135.96
-139.03
-140.29
-138.83
-134.51
-128.38
-122.16
-117.32
-113.81
-109.44
-100.46
-82.88
-54.34
-15.47
30.21
77.36
120.63
156.10
181.61
196.44
200.79
195.81
184.02
169.51
157.22
151.35
153.25
160.51
167.47
167.26
154.67
128.25
90.88
48.56
7.85
-26.46
-52.57
-70.93
-82.44
-86.65
-81.34
-63.91
-33.71
6.39
50.23
90.38
120.98
139.19
145.22
141.15
129.98
115.21
100.89
91.10
88.34
91.91
97.66
99.92
94.71
82.37
67.56
56.48
53.22
57.40
64.71
69.69
69.05
63.22
55.50
49.89
48.85
52.41
58.74
65.20
69.16
68.31
60.90
46.09
24.71
-0.75
-26.79
-50.47
-70.59
-88.09
-104.99
-123.04
-142.79
-163.64
-184.56
-204.42
-221.72
-234.28
-239.53
-235.84
-224.38
-210.06
-200.35
-202.32
-219.23
-248.45
-282.28
-310.95
-326.22
-324.04
-305.22
-274.47
-238.63
-204.64
-177.87
-160.96
-153.35
-151.57
-150.39
-144.67
-130.89
-108.21
-78.55
-45.80
-14.62
10.56
26.41
31.52
26.95
16.41
5.67
1.06
7.43
26.23
54.93
87.97
118.93
143.31
160.32
172.85
185.78
203.53
227.90
257.25
287.11
311.80
326.42
328.36
318.00
298.35
273.84
248.64
225.05
202.58
178.42
148.90
111.54
66.53
17.07
-31.59
-73.61
-104.05
-120.07
-121.34
-110.16
-91.09
-70.15
-53.38
-45.08
-46.24
-54.02
-62.74
-66.21
-60.38
-45.01
-23.70
-2.22
14.02
22.32
23.52
21.02
18.64
18.53
20.44
22.75
24.30
25.71
29.15
36.47
47.21
57.90
63.27
58.94
43.93
21.59
-1.65
-19.04
-26.36
-23.48
-13.82
-2.33
6.84
12.09
14.41
16.20
19.53
24.95
31.62
38.28
44.60
51.68
61.26
74.19
88.98
101.68
107.42
102.83
87.77
65.54
41.33
19.93
3.81
-7.59
-17.24
-29.18
-47.18
-73.59
-108.33
-148.38
-187.55
-217.55
-229.71
-217.91
-181.18
-125.11
-61.20
-3.96
32.94
40.66
17.82
-29.11
-87.64
-143.07
-182.80
-199.60
-192.78
-167.04
-129.39
-86.43
-42.82
-1.68
34.21
61.53
76.93
78.36
66.23
44.16
17.78
-6.96
-25.55
-36.16
-39.85
-40.18
-41.78
-48.56
-61.50
-77.66
-90.68
-93.17
-79.84
-49.89
-7.03
42.81
94.46
145.37
195.11
243.41
288.36
326.19
352.98
366.84
368.83
362.18
350.12
334.12
313.55
286.97
253.90
216.09
177.26
141.72
112.62
90.93
75.48
63.81
53.32
41.95
28.53
12.37
-7.12
-30.91
-60.28
-96.17
-138.31
-184.32
-229.92
-269.99
-300.04
-317.65
-322.67
-316.71
-302.10
-281.32
-257.05
-232.43
-211.03
-195.93
-188.24
-185.81
-183.32
-174.13
-153.31
-120.31
-79.89
-40.36
-10.04
6.48
10.35
7.60
5.89
10.92
23.99
42.26
61.04
76.53
87.19
93.65
97.22
98.86
99.05
98.54
98.94
102.35
110.22
121.87
133.69
139.92
134.70
114.93
82.29
43.68
9.39
-10.64
-11.01
6.24
31.88
53.12
59.10
45.56
16.23
-19.76
-52.86
-77.27
-92.67
-102.46
-110.55
-118.91
-127.33
-135.07
-142.79
-153.30
-170.28
-195.92
-229.04
-264.76
-296.14
-316.51
-321.71
-311.01
-286.69
-252.58
-212.44
-169.07
-124.28
-79.51
-36.25
3.99
40.16
71.95
99.82
124.49
146.43
165.51
181.11
192.35
198.33
198.21
191.33
177.40
156.73
130.52
100.73
69.61
39.27
11.28
-13.27
-33.38
-48.27
-57.67
-62.33
-64.05
-65.05
-67.16
-70.98
-75.72
-79.53
-80.49
-77.32
-69.79
-58.69
-45.44
-31.81
-19.55
-10.17
-4.53
-2.49
-2.60
-2.46
0.40
7.49
18.72
32.45
46.36
58.30
67.01
72.13
73.81
72.29
67.88
61.05
52.72
44.28
37.25
32.86
31.75
33.88
38.51
44.42
50.05
53.72
54.11
50.87
44.87
38.09
32.87
30.94
32.63
36.80
41.42
44.54
45.05
42.86
38.53
32.73
26.02
18.92
12.15
6.76
3.86
4.09
7.22
12.22
17.56
21.95
24.74
25.90
25.78
24.86
23.52
21.93
20.02
17.46
13.94
9.38
4.29
-0.35
-3.48
-4.56
-4.07
-3.24
-3.38
-4.91
-7.01
-7.93
-5.94
-0.44
7.62
16.10
22.66
25.80
25.52
23.14
20.59
19.77
21.78
26.84
34.60
44.54
56.43
70.37
86.74
105.77
127.13
149.67
171.57
190.77
205.55
214.87
218.38
216.02
207.75
193.31
172.44
145.29
112.42
74.64
32.50
-13.78
-63.47
-113.90
-159.46
-192.26
-204.70
-192.95
-159.71
-114.23
-69.45
-37.27
-24.34
-30.35
-49.17
-72.09
-91.22
-101.92
-103.42
-98.15
-90.31
-84.08
-82.25
-85.24
-91.03
-96.23
-97.62
-93.73
-85.38
-75.05
-65.48
-57.96
-51.87
-45.01
-34.94
-20.45
-2.33
16.75
33.07
43.37
46.03
41.75
33.41
24.97
20.01
20.52
26.51
36.17
46.59
54.47
56.78
51.76
39.74
23.49
7.36
-4.75
-11.56
-15.51
-21.60
-34.63
-56.11
-82.90
-108.55
-126.72
-134.49
-133.81
-129.63
-126.90
-127.73
-130.32
-130.39
-123.90
-109.42
-88.70
-65.61
-43.66
-24.28
-6.82
11.24
32.95
60.04
91.41
123.51
151.33
171.01
180.91
181.66
176.49
171.06
171.57
181.90
202.90
231.49
263.03
291.62
310.36
313.85
301.10
275.10
239.98
200.35
158.80
118.55
80.96
44.30
5.19
-37.83
-83.82
-130.93
-174.01
-206.81
-220.63
-199.43
-140.06
-59.26
15.04
60.24
63.36
35.57
-7.34
-50.20
-87.41
-114.55
-133.10
-142.68
-128.78
-82.65
-3.64
82.37
163.59
232.38
287.92
326.81
349.30
357.34
352.32
336.73
312.33
283.44
251.56
216.00
174.75
128.42
76.10
17.27
-45.92
-109.87
-168.65
-219.79
-264.18
-304.86
-343.98
-387.95
-440.91
-502.23
-567.38
-629.64
-685.90
-736.94
-785.56
-834.95
-895.15
-972.43
-1065.41
-1164.25
-1253.04
-1316.04
-1341.30
-1321.90
-1212.03
-997.08
-698.44
-368.08
-61.44
187.69
370.75
494.48
574.20
626.07
652.23
654.20
637.55
612.48
590.10
578.76
574.80
575.85
579.57
578.62
569.32
553.17
536.24
525.15
522.77
526.53
531.33
531.10
518.60
492.79
458.91
425.15
397.13
374.03
349.24
315.67
269.00
208.13
136.83
61.12
-13.38
-82.96
-145.33
-198.31
-238.37
-262.07
-268.33
-258.21
-234.90
-202.75
-166.01
-128.20
-91.76
-57.64
-25.70
5.17
37.09
72.78
114.52
162.89
215.61
267.25
310.43
337.92
345.34
332.88
305.32
269.87
233.53
200.75
172.87
149.11
128.21
109.51
93.04
78.76
65.78
52.32
36.43
16.92
-6.18
-31.87
-58.77
-86.30
-115.21
-147.31
-184.26
-226.17
-270.82
-313.75
-349.47
-372.76
-380.04
-370.37
-345.42
-309.26
-267.57
-226.49
-191.29
-165.33
-149.88
-144.70
-149.07
-161.97
-181.41
-203.42
-221.92
-229.82
-221.65
-196.04
-156.54
-110.53
-66.03
-28.52
0.83
24.42
46.72
72.01
103.72
144.01
192.34
245.14
295.69
335.28
355.43
350.94
321.53
273.38
217.76
166.46
128.72
108.94
106.11
114.67
127.23
135.47
133.53
119.31
92.58
55.06
10.09
-37.94
-84.39
-124.31
-155.16
-175.77
-177.13
-153.82
-107.71
-48.55
11.29
57.81
92.30
118.82
140.95
160.57
177.42
189.02
193.31
190.06
180.88
169.26
157.38
146.93
138.89
132.17
124.62
114.27
100.18
82.62
63.32
43.43
24.27
6.94
-8.65
-23.66
-39.54
-57.58
-78.43
-101.48
-126.07
-150.72
-173.60
-193.49
-210.26
-225.07
-240.45
-259.99
-287.04
-323.40
-366.78
-410.08
-442.99
-455.31
-440.44
-397.83
-332.71
-253.79
-170.98
-93.44
-28.93
16.67
40.41
43.24
29.95
7.06
-20.13
-49.86
-83.17
-120.64
-158.60
-188.01
-197.44
-178.60
-131.35
-64.80
5.91
65.23
102.35
113.65
102.46
77.23
49.28
30.79
32.82
63.12
124.51
213.45
320.11
430.20
527.63
598.37
633.52
631.28
596.94
540.90
475.43
411.18
355.02
309.33
272.94
242.78
215.42
187.87
158.14
125.39
90.03
53.62
18.25
-14.41
-43.74
-70.56
-96.76
-124.27
-154.03
-185.39
-216.39
-244.46
-267.47
-284.78
-297.50
-308.23
-320.83
-339.59
-368.35
-409.11
-460.53
-517.16
-570.26
-610.39
-630.60
-629.09
-609.58
-579.44
-546.38
-515.57
-488.70
-464.85
-442.51
-420.96
-400.60
-382.00
-364.93
-347.91
-328.77
-305.78
-278.47
-247.73
-215.45
-183.48
-152.90
-123.59
-94.69
-65.10
-34.30
-2.69
28.41
57.34
82.74
104.08
121.95
137.58
152.38
167.34
182.61
197.55
211.08
222.22
230.59
236.54
240.97
244.89
248.97
253.33
257.52
260.95
263.18
264.38
265.33
267.12
270.96
277.94
288.87
304.12
323.28
344.81
366.09
384.03
396.08
401.41
401.12
397.65
393.39
389.40
384.94
378.12
367.26
352.09
334.06
315.75
299.66
287.15
277.89
270.09
261.13
248.32
229.60
204.14
172.29
135.53
95.81
54.96
14.34
-25.30
-63.72
-100.98
-137.47
-173.80
-210.32
-246.33
-279.37
-305.10
-318.17
-313.99
-290.33
-248.03
-190.17
-120.76
-43.83
36.29
113.83
181.05
229.18
251.05
243.77
210.34
158.80
99.70
43.18
-3.05
-34.56
-49.94
-50.24
-38.66
-19.96
0.50
17.92
29.25
33.64
31.68
24.33
12.27
-4.13
-24.18
-46.13
-67.38
-85.37
-98.81
-107.99
-114.53
-120.21
-126.14
-132.52
-139.19
-146.23
-154.26
-164.21
-176.43
-190.33
-204.50
-217.43
-228.04
-235.82
-240.17
-239.77
-233.11
-219.23
-198.93
-174.99
-151.46
-131.94
-118.11
-109.24
-102.67
-95.23
-84.44
-69.32
-50.12
-27.90
-3.90
20.71
44.55
66.13
83.74
96.13
102.76
104.48
103.20
101.31
100.69
101.75
103.46
104.15
102.85
99.79
96.63
95.38
97.21
101.92
108.04
114.07
119.06
122.99
126.12
128.20
128.26
124.95
117.72
107.41
96.33
87.26
82.37
82.02
84.92
88.91
91.89
92.86
91.99
90.04
87.40
84.01
79.43
73.76
68.09
64.14
63.41
65.75
69.25
70.75
67.38
57.44
40.43
16.46
-14.13
-50.34
-89.46
-126.55
-155.24
-169.92
-168.29
-152.67
-129.09
-104.78
-85.07
-72.18
-65.27
-62.14
-60.87
-60.50
-60.60
-60.85
-61.30
-62.83
-67.83
-79.38
-99.53
-127.53
-159.11
-187.51
-206.29
-211.92
-204.81
-188.61
-167.64
-144.88
-121.26
-96.58
-71.18
-46.66
-25.32
-8.39
5.08
17.90
33.11
51.95
72.98
92.81
107.96
116.64
119.37
118.28
115.54
112.15
107.78
101.43
92.31
80.31
66.12
50.55
34.39
18.54
3.88
-8.46
-17.23
-21.52
-20.98
-16.11
-8.03
1.88
12.41
22.82
32.87
42.47
51.24
58.27
62.30
62.38
58.58
52.23
45.58
40.82
39.07
39.98
42.06
43.66
43.86
42.78
41.06
39.10
36.64
32.50
25.44
14.87
1.36
-13.34
-26.82
-36.95
-42.41
-43.17
-40.42
-35.96
-31.61
-28.54
-26.96
-26.27
-25.61
-24.47
-23.05
-22.18
-22.75
-25.18
-28.98
-32.92
-35.52
-35.68
-33.09
-28.17
-21.90
-15.28
-9.16
-4.09
-0.34
1.96
2.82
2.38
0.91
-1.11
-2.99
-3.99
-3.50
-1.28
2.48
7.10
11.66
15.26
17.19
17.16
15.34
12.19
8.44
4.87
2.19
0.75
0.41
0.61
0.57
-0.23
-1.85
-3.83
-5.54
-6.53
-6.79
-6.81
-7.30
-8.83
-11.57
-15.17
-18.97
-22.16
-24.14
-24.63
-23.76
-21.96
-19.73
-17.48
-15.40
-13.37
-11.17
-8.56
-5.44
-1.90
1.69
4.77
6.73
7.17
6.13
4.10
1.90
0.32
-0.11
0.66
2.38
4.66
7.18
9.76
12.31
14.76
16.87
18.34
18.86
18.26
16.65
14.40
12.04
10.15
9.09
8.90
9.27
9.74
9.82
9.22
7.84
5.77
3.19
0.41
-2.27
-4.53
-6.16
-7.26
-8.15
-9.34
-11.28
-14.09
-17.50
-20.90
-23.61
-25.12
-25.17
-23.84
-21.34
-17.91
-13.81
-9.33
-4.83
-0.67
2.80
5.40
7.14
8.19
8.80
9.21
9.57
9.97
10.45
11.04
11.75
12.57
13.45
14.32
15.16
15.96
16.67
17.23
17.47
17.24
16.50
15.39
14.16
13.08
12.28
11.68
11.02
10.03
8.58
6.70
4.63
2.61
0.91
-0.36
-1.22
-1.79
-2.35
-3.23
-4.82
-7.44
-11.09
-15.43
-19.83
-23.51
-25.90
-26.82
-26.51
-25.44
-24.09
-22.68
-21.18
-19.38
-17.05
-14.06
-10.41
-6.31
-2.07
1.90
5.23
7.71
9.37
10.51
11.49
12.48
13.41
14.01
14.10
13.78
13.52
13.86
15.13
17.20
19.53
21.44
22.38
22.24
21.28
19.96
18.64
17.42
16.10
14.45
12.33
9.82
7.09
4.32
1.58
-1.26
-4.31
-7.55
-10.83
-13.97
-16.96
-19.94
-23.12
-26.55
-30.00
-32.92
-34.74
-35.01
-33.63
-30.75
-26.68
-21.77
-16.32
-10.58
-4.78
0.90
6.24
10.99
14.79
17.25
17.97
16.81
13.96
10.07
6.06
2.94
1.54
2.28
5.18
9.84
15.66
21.88
27.70
32.38
35.29
36.00
34.39
30.78
25.83
20.47
15.50
11.44
8.38
6.07
4.11
2.22
0.32
-1.47
-2.95
-3.99
-4.64
-5.11
-5.74
-6.89
-9.00
-12.45
-17.49
-24.02
-31.48
-38.92
-45.21
-49.40
-50.98
-49.96
-46.78
-42.02
-36.22
-29.82
-23.26
-17.01
-11.62
-7.44
-4.53
-2.48
-0.55
2.07
5.95
11.15
17.13
22.88
27.43
30.05
30.41
28.76
25.79
22.45
19.56
17.62
16.69
16.57
16.79
16.78
16.00
14.25
11.84
9.48
8.09
8.49
11.38
16.67
23.41
30.20
35.77
39.54
41.63
42.55
42.80
43.51
44.96
46.39
46.54
44.40
39.71
32.92
24.75
15.98
9.50
7.40
10.52
18.40
30.24
45.14
61.97
79.01
94.25
109.29
125.25
142.31
159.80
177.77
197.42
220.55
248.08
279.21
315.23
353.82
388.92
412.50
418.85
407.16
381.34
347.88
287.66
196.45
85.57
-23.21
-112.22
-174.87
-213.07
-232.03
-237.50
-234.96
-225.01
-208.59
-188.81
-170.46
-157.29
-150.80
-150.76
-156.76
-169.17
-186.12
-207.85
-231.54
-255.24
-276.77
-293.88
-305.03
-309.81
-309.22
-303.07
-292.18
-278.44
-265.18
-255.49
-250.98
-250.89
-251.91
-248.82
-235.08
-206.79
-165.18
-117.05
-71.91
-38.01
-19.17
-14.34
-18.99
-27.68
-36.51
-44.13
-50.96
-57.26
-62.59
-64.55
-61.19
-52.08
-38.51
-22.29
-5.61
9.85
23.29
34.57
43.75
50.37
53.34
51.12
43.14
29.45
11.09
-9.83
-30.61
-48.54
-61.78
-69.57
-72.30
-70.17
-64.09
-55.23
-44.71
-33.43
-21.96
-10.50
1.58
8.87
9.50
2.99
-9.92
-27.55
-47.67
-68.03
-86.74
-102.57
-115.07
-123.38
-127.47
-127.85
-125.30
-120.67
-114.87
-108.71
-102.93
-98.18
-94.21
-90.84
-87.86
-85.02
-82.01
-78.57
-74.57
-70.05
-65.33
-60.38
-55.35
-50.35
-45.37
-40.15
-34.32
-27.61
-19.99
-11.85
-3.56
4.30
11.36
17.59
23.38
29.39
36.21
44.11
52.84
61.95
70.89
79.45
87.94
97.19
108.24
121.99
138.99
159.42
183.19
209.58
236.90
262.56
283.64
298.00
305.49
308.38
310.35
314.95
323.56
334.57
344.41
349.51
348.13
340.81
329.30
314.94
298.09
277.74
252.53
222.04
187.27
150.34
113.85
80.27
51.99
32.63
25.34
31.79
51.34
80.85
115.42
149.64
178.85
199.96
214.14
223.36
229.45
233.92
238.30
244.29
253.00
263.67
272.84
278.98
279.11
270.19
250.97
223.46
192.61
164.33
143.09
130.01
128.34
137.53
153.11
167.66
173.43
165.06
141.33
105.87
39.83
-57.29
-172.48
-286.19
-384.13
-462.79
-525.46
-575.77
-610.60
-631.81
-636.59
-625.02
-601.05
-570.74
-538.79
-506.43
-473.13
-437.41
-399.32
-356.37
-308.96
-259.83
-212.81
-170.39
-132.63
-97.79
-63.43
-28.08
11.75
57.80
109.21
162.17
210.51
247.05
265.30
261.64
236.28
194.93
145.23
93.67
43.31
-6.40
-57.61
-111.19
-164.50
-211.47
-243.98
-255.81
-245.37
-216.31
-175.80
-131.49
-88.86
-50.09
-15.03
17.23
46.77
72.54
