1670226828.00
64.000000
-0.00
-0.00
-0.00
-0.00
-0.00
-0.00
-0.00
-0.00
-0.00
-0.00
0.00
0.01
0.01
-0.00
-0.03
-0.05
-0.05
0.00
0.13
0.36
0.66
1.01
1.37
1.72
2.06
2.40
2.79
3.24
3.80
4.42
5.06
5.66
6.20
6.68
7.15
7.68
8.31
9.14
10.09
11.04
11.88
12.56
13.14
13.76
14.65
15.96
17.91
20.32
22.90
25.38
27.58
29.57
31.68
34.32
37.81
42.54
48.15
54.10
59.83
64.97
69.58
74.14
79.34
85.71
93.76
103.00
112.62
121.73
129.77
136.75
143.30
150.75
157.77
166.64
177.95
191.79
206.97
220.57
228.25
225.36
208.53
176.87
132.76
80.05
23.07
-34.94
-92.44
-149.16
-205.23
-260.37
-313.74
-363.87
-409.83
-450.91
-486.50
-515.74
-537.23
-549.22
-549.96
-538.37
-514.21
-478.67
-433.88
-382.45
-327.02
-269.84
-212.63
-156.66
-102.95
-52.37
-5.90
35.58
71.43
101.35
125.50
144.38
158.69
169.15
176.37
180.75
182.57
182.07
179.51
175.23
169.65
163.18
156.15
148.81
141.30
133.69
126.02
118.33
110.69
103.16
95.80
88.68
81.83
75.24
68.95
62.95
57.25
51.87
46.81
42.07
37.65
33.54
29.74
26.23
23.01
20.07
17.41
15.02
12.89
11.01
9.36
7.94
6.72
5.70
4.84
4.13
3.56
3.11
2.77
2.52
2.34
2.24
2.20
2.21
2.27
2.38
2.53
2.72
2.95
3.21
3.51
3.85
4.23
4.65
5.11
5.61
6.16
6.76
7.39
8.08
8.83
9.62
10.47
11.37
12.34
13.36
14.43
15.57
16.76
18.03
19.38
20.81
22.30
23.86
25.43
26.98
28.39
29.58
30.40
30.69
30.33
29.18
27.17
24.27
20.53
16.00
10.88
5.35
-0.33
-5.92
-11.15
-15.80
-19.72
-22.77
-24.91
-26.12
-26.48
-26.09
-25.06
-23.51
-21.59
-19.41
-17.03
-14.54
-11.94
-9.30
-6.63
-3.92
-1.18
1.63
4.51
7.49
10.57
13.83
17.19
20.66
24.31
28.20
32.38
36.91
41.78
46.96
52.44
57.90
63.12
67.98
72.44
76.55
80.42
84.16
87.95
91.98
95.99
99.93
103.87
107.98
112.44
117.38
122.78
128.53
134.47
139.86
144.23
147.35
149.16
149.54
148.11
143.95
135.33
124.11
110.40
94.27
76.12
56.72
37.12
18.28
0.81
-15.34
-31.01
-47.91
-67.24
-89.20
-112.49
-135.28
-155.57
-171.85
-184.02
-193.92
-205.23
-221.46
-244.14
-270.96
-296.12
-311.22
-307.72
-279.98
-228.22
-158.63
-81.49
-8.13
52.64
94.94
117.27
123.04
119.91
116.70
122.83
145.59
187.13
244.84
308.13
363.93
402.43
419.85
415.06
391.04
352.34
303.31
251.54
199.16
146.94
96.34
47.93
-4.65
-67.95
-146.18
-238.79
-334.20
-426.13
-510.75
-585.53
-651.35
-718.04
-794.35
-884.79
-987.67
-1088.60
-1182.62
-1269.99
-1352.33
-1379.59
-1316.61
-1151.01
-902.10
-662.81
-455.95
-284.86
-149.31
-32.91
67.60
146.84
203.64
242.00
270.54
307.80
360.95
429.60
508.47
584.64
636.72
646.34
602.42
504.70
370.13
216.47
62.38
-68.71
-159.43
-216.54
-254.14
-285.05
-311.82
-330.41
-339.01
-336.65
-322.73
-299.49
-271.29
-239.88
-204.75
-163.92
-113.85
-54.06
13.53
85.55
156.72
221.64
277.87
325.05
363.90
395.57
420.41
438.25
448.74
451.03
444.68
430.85
411.55
389.00
365.06
341.70
320.80
303.91
291.58
283.35
278.46
276.05
275.40
276.31
279.55
286.57
298.96
317.94
344.42
379.12
422.18
472.02
524.48
572.88
609.43
627.59
624.41
601.62
564.80
521.08
476.62
434.97
396.80
360.68
324.14
284.28
238.24
183.26
117.01
37.95
-54.19
-157.65
-267.76
-376.27
-472.14
-543.84
-583.13
-588.13
-564.21
-521.63
-470.98
-419.09
-367.18
-312.56
-252.21
-186.01
-117.48
-52.02
5.97
55.01
95.99
129.83
155.23
168.22
164.36
142.25
106.10
65.87
34.35
22.71
36.30
72.93
123.72
176.60
220.18
246.72
253.34
241.36
214.39
176.27
130.29
79.62
28.79
-15.51
-45.15
-52.93
-35.74
3.34
55.47
108.76
152.17
178.57
186.03
177.18
157.58
133.52
110.48
92.03
79.35
71.49
66.26
61.43
55.60
48.48
40.10
30.15
17.84
2.06
-18.04
-42.86
-72.41
-106.43
-144.28
-184.48
-224.30
-259.83
-287.04
-303.35
-308.89
-307.04
-303.74
-305.81
-319.06
-346.65
-388.29
-440.55
-497.34
-550.97
-593.45
-618.15
-621.84
-606.18
-577.63
-545.34
-517.80
-499.36
-488.55
-479.44
-464.74
-439.41
-402.58
-357.07
-307.12
-256.02
-204.81
-152.72
-98.68
-42.45
15.11
72.51
128.41
182.25
233.86
283.34
330.57
374.97
415.93
453.47
488.72
523.71
560.20
598.06
634.27
663.18
678.04
673.48
647.42
601.65
540.83
470.95
397.49
324.54
254.80
189.77
130.06
75.39
24.95
-21.98
-65.29
-104.03
-136.98
-163.70
-185.04
-202.73
-218.84
-235.11
-252.95
-273.98
-300.17
-333.07
-372.46
-415.25
-455.67
-487.07
-504.37
-505.96
-493.85
-472.26
-445.50
-416.48
-386.65
-356.46
-326.43
-297.57
-271.18
-248.38
-229.50
-213.84
-199.74
-185.08
-167.94
-147.42
-123.95
-99.07
-74.60
-51.58
-29.74
-7.35
18.00
48.32
84.47
126.28
173.08
224.14
278.30
333.12
384.38
426.86
456.47
472.37
477.86
479.12
481.99
488.74
496.80
500.75
496.26
483.59
467.92
456.36
453.39
457.71
462.67
459.80
443.30
412.82
372.92
330.23
289.79
252.95
217.76
181.05
140.52
95.63
47.27
-3.36
-55.55
-108.98
-163.12
-216.40
-265.81
-307.26
-337.19
-354.06
-359.35
-357.34
-353.51
-352.46
-356.10
-363.33
-371.08
-376.38
-377.92
-376.45
-374.12
-373.02
-374.46
-378.83
-386.02
-395.65
-406.57
-416.21
-420.56
-415.10
-396.20
-362.75
-316.70
-262.30
-204.75
-148.64
-96.85
-50.62
-9.98
25.74
57.25
84.96
108.75
127.43
138.88
140.87
132.28
114.65
93.02
75.13
69.21
80.90
110.46
152.20
196.13
231.52
250.86
252.43
240.38
222.75
208.04
201.87
205.25
214.76
224.40
228.41
223.60
210.06
190.55
168.69
147.20
127.33
109.30
93.19
79.61
69.44
63.01
59.75
58.39
57.43
55.51
51.17
42.80
29.24
10.90
-9.03
-24.65
-29.19
-17.70
10.68
52.41
101.07
150.11
194.94
233.68
266.48
294.17
317.25
335.45
348.01
353.89
352.22
342.59
325.32
301.64
273.38
242.21
208.92
173.15
133.92
90.53
43.59
-4.95
-52.49
-96.87
-137.31
-174.69
-211.00
-248.59
-289.49
-335.07
-385.84
-440.89
-497.18
-549.32
-590.15
-612.56
-611.72
-586.76
-540.82
-479.75
-409.90
-336.59
-263.48
-192.66
-125.11
-60.93
0.31
58.93
114.32
164.36
205.63
234.47
248.50
247.20
231.67
203.70
165.11
118.11
66.00
13.59
-33.85
-72.51
-101.69
-123.72
-141.99
-158.54
-172.79
-182.30
-185.00
-181.48
-175.55
-172.73
-177.69
-192.13
-214.32
-240.17
-265.02
-285.16
-298.39
-303.85
-301.60
-292.14
-276.17
-254.59
-228.34
-198.50
-166.11
-132.11
-97.37
-62.97
-30.46
-2.04
19.82
33.34
38.48
37.45
34.20
33.01
36.94
47.19
63.78
86.55
115.52
149.94
186.94
220.83
244.33
251.53
240.85
216.33
186.13
159.05
141.00
133.35
133.93
139.62
148.74
161.71
179.81
203.33
230.23
256.52
277.97
292.15
299.26
301.82
302.85
303.99
304.58
302.25
294.54
280.61
261.87
241.35
222.06
205.59
191.59
178.50
165.00
150.99
137.50
125.53
114.80
103.28
87.88
66.06
37.44
4.15
-30.02
-61.34
-87.72
-109.30
-127.90
-145.61
-163.50
-180.89
-195.92
-206.63
-212.01
-212.44
-209.28
-203.96
-197.35
-189.70
-181.11
-172.16
-163.99
-157.63
-153.16
-149.20
-143.44
-133.69
-119.14
-100.88
-81.43
-63.52
-48.90
-37.79
-29.07
-21.12
-12.73
-3.57
6.15
16.15
26.71
38.73
53.22
70.72
90.75
111.87
132.16
149.95
164.26
175.04
182.96
189.14
194.97
201.80
210.46
220.78
230.99
237.78
236.94
224.61
198.79
160.38
113.29
63.54
17.73
-18.67
-42.64
-54.18
-56.06
-52.59
-48.26
-46.21
-47.67
-52.22
-58.84
-66.94
-77.06
-90.71
-109.46
-133.61
-161.29
-188.49
-210.10
-221.83
-221.93
-211.83
-195.73
-179.19
-167.72
-165.74
-176.41
-201.40
-240.73
-291.89
-349.33
-405.14
-450.77
-479.34
-487.46
-475.91
-449.10
-413.77
-377.58
-347.20
-326.70
-316.19
-311.71
-306.74
-294.63
-271.32
-236.48
-192.62
-143.11
-90.16
-33.86
26.96
93.21
164.66
239.80
316.12
390.29
457.95
513.82
552.65
570.72
567.75
547.57
517.04
483.35
451.38
421.92
391.96
357.01
313.29
259.19
195.25
123.32
46.16
-32.21
-105.91
-167.68
-210.63
-231.00
-229.46
-210.50
-179.83
-141.07
-94.62
-39.25
24.67
92.50
154.78
199.94
218.54
207.12
169.97
117.96
65.31
25.60
8.57
18.29
53.41
108.20
173.94
240.51
297.52
335.94
349.80
337.22
300.46
245.02
178.21
107.79
41.10
-15.71
-58.49
-86.15
-101.14
-108.47
-113.10
-117.15
-118.66
-113.06
-97.05
-71.80
-43.52
-20.22
-6.91
-1.92
2.85
18.25
52.23
105.52
170.56
233.48
278.91
295.14
278.00
232.33
170.90
110.79
68.40
54.53
71.15
111.40
162.75
211.90
249.25
271.21
279.55
278.61
272.43
263.00
250.52
234.70
216.09
196.18
176.29
156.24
133.83
105.86
69.90
26.19
-21.81
-68.48
-107.79
-135.52
-150.35
-153.81
-148.96
-138.94
-125.70
-109.79
-90.90
-68.84
-44.52
-20.17
0.98
15.67
21.50
17.60
4.52
-16.00
-41.90
-71.64
-104.69
-141.92
-185.01
-235.47
-293.43
-356.68
-420.70
-479.57
-527.62
-560.61
-576.41
-574.70
-556.47
-524.08
-481.40
-433.91
-387.74
-347.97
-317.10
-294.60
-277.83
-263.60
-249.47
-233.98
-216.21
-195.21
-170.19
-141.25
-110.32
-80.87
-56.83
-40.97
-33.56
-32.47
-34.26
-35.76
-35.38
-33.52
-32.05
-33.33
-38.91
-48.48
-59.92
-70.21
-77.11
-80.60
-83.14
-88.74
-101.05
-121.40
-148.21
-177.74
-205.86
-229.95
-249.58
-265.75
-279.48
-290.73
-298.44
-301.72
-301.09
-298.61
-296.84
-297.24
-299.25
-300.67
-299.06
-293.08
-282.92
-269.76
-254.76
-238.59
-221.60
-204.42
-188.06
-173.56
-161.05
-149.41
-136.54
-120.45
-100.34
-76.88
-51.92
-27.33
-4.18
17.86
40.25
65.20
95.00
131.48
175.86
228.29
287.57
350.79
413.75
472.00
522.73
566.26
606.17
647.66
694.82
748.29
804.53
856.98
898.57
923.78
929.67
915.59
882.44
831.97
766.79
690.49
607.52
522.47
439.41
361.65
291.77
231.96
183.68
146.73
118.27
93.09
65.04
29.35
-15.75
-68.88
-126.57
-185.11
-241.57
-293.90
-340.10
-377.87
-404.86
-419.43
-421.08
-410.09
-386.62
-350.40
-301.57
-241.99
-175.74
-108.16
-43.36
17.47
75.88
133.51
189.09
237.36
270.87
283.79
275.40
250.84
218.52
186.11
157.21
130.92
103.38
70.82
31.51
-13.85
-62.89
-112.72
-160.41
-203.29
-239.26
-267.01
-286.17
-296.92
-299.34
-293.00
-277.28
-252.36
-220.31
-185.21
-151.93
-124.01
-101.92
-82.85
-62.33
-36.88
-6.07
26.80
55.69
73.96
76.40
60.38
26.66
-20.56
-74.61
-127.73
-173.19
-207.21
-229.83
-244.47
-255.98
-268.32
-282.88
-298.52
-312.64
-322.61
-326.66
-323.82
-313.43
-294.84
-267.38
-230.85
-185.89
-133.79
-76.06
-14.14
50.70
116.80
181.68
242.16
294.92
337.53
369.37
391.84
407.47
418.42
425.09
425.79
417.76
399.17
370.75
336.15
300.27
266.48
234.55
200.44
158.40
104.46
39.01
-32.71
-102.59
-162.75
-208.24
-237.89
-253.61
-258.87
-257.49
-253.01
-248.25
-244.76
-241.99
-236.89
-224.37
-199.25
-158.62
-103.58
-39.50
25.81
84.71
132.08
166.09
187.56
198.31
199.74
192.43
176.68
153.51
125.44
96.67
72.32
56.97
53.07
59.78
73.05
87.04
96.29
97.38
89.44
73.18
49.51
18.78
-18.96
-62.87
-110.37
-157.30
-199.12
-232.40
-255.82
-269.92
-275.49
-272.29
-258.33
-230.74
-187.29
-127.79
-54.74
27.03
111.61
193.34
267.78
331.92
383.67
421.16
442.71
447.66
437.64
417.09
392.55
370.25
353.88
343.09
334.11
322.03
303.37
277.69
247.37
215.91
185.76
157.26
128.80
98.23
64.41
28.15
-8.09
-41.28
-69.38
-92.25
-111.75
-130.72
-151.19
-172.93
-192.92
-206.44
-209.07
-198.69
-176.47
-146.48
-114.35
-86.18
-67.65
-63.43
-76.14
-105.32
-146.63
-192.33
-233.18
-261.06
-271.27
-263.47
-241.05
-209.16
-172.90
-135.86
-99.80
-64.92
-30.33
5.36
43.40
84.18
126.84
169.33
208.90
242.76
268.71
285.43
292.70
291.44
283.87
273.21
263.29
257.72
259.11
268.25
283.79
302.22
318.38
326.59
321.99
301.85
266.35
218.37
162.49
103.52
45.08
-11.08
-64.84
-117.16
-169.20
-221.59
-273.85
-324.15
-369.53
-406.43
-431.42
-442.00
-437.16
-417.70
-386.16
-346.44
-302.97
-259.79
-219.62
-183.41
-150.74
-120.87
-94.14
-72.68
-59.91
-58.71
-69.36
-88.28
-108.72
-123.20
-126.09
-115.30
-92.08
-59.41
-20.43
22.34
66.83
110.86
151.77
186.83
213.95
232.14
241.47
242.50
235.87
222.32
203.16
180.28
155.81
131.41
108.01
86.50
68.99
59.55
63.42
84.34
121.36
167.23
209.77
235.88
236.64
210.76
164.69
109.21
54.30
5.21
-38.86
-82.83
-132.13
-188.84
-249.51
-305.70
-346.45
-362.03
-346.93
-301.54
-232.00
-148.74
-64.05
10.45
65.97
98.25
107.99
100.08
81.75
60.09
40.08
24.03
12.16
3.91
-1.16
-3.62
-5.22
-9.36
-20.25
-41.03
-72.04
-110.48
-151.69
-191.02
-225.74
-255.68
-282.75
-309.57
-337.96
-368.53
-400.64
-432.49
-461.32
-483.58
-495.59
-494.69
-479.84
-451.73
-413.16
-368.48
-322.35
-278.68
-239.82
-206.54
-179.00
-156.40
-136.89
-118.51
-99.36
-77.92
-52.96
-23.49
11.03
49.97
93.42
143.13
200.98
267.73
341.62
418.03
490.88
554.54
604.86
633.58
635.54
609.69
559.93
493.96
420.44
347.26
286.80
241.26
210.73
195.47
194.63
205.89
225.83
247.39
264.81
273.69
270.53
255.08
230.07
199.27
166.10
132.65
99.57
67.16
35.73
5.36
-22.59
-46.21
-64.70
-78.97
-91.76
-106.78
-127.25
-154.84
-189.68
-229.19
-268.93
-304.05
-330.60
-345.75
-348.15
-337.49
-314.48
-281.19
-240.31
-195.09
-148.95
-105.09
-65.95
-33.00
-6.59
13.82
29.15
40.52
48.71
54.06
56.37
55.28
50.57
42.63
32.50
21.68
11.78
3.99
-1.23
-4.00
-4.86
-4.38
-3.01
-1.13
0.88
2.57
3.49
3.41
2.44
1.03
-0.25
-1.00
-1.14
-0.86
-0.54
-0.54
-1.10
-2.34
-4.27
-6.82
-9.79
-12.89
-15.67
-17.69
-18.53
-17.93
-15.82
-12.42
-8.19
-3.63
0.75
4.67
8.05
10.87
13.00
14.24
14.36
13.32
11.50
9.62
8.54
8.90
10.81
13.82
17.12
19.90
21.66
22.38
22.31
21.87
21.34
20.90
20.57
20.30
20.03
19.65
19.05
18.06
16.55
14.40
11.66
8.44
4.81
0.84
-3.58
-8.55
-14.11
-20.22
-26.73
-33.33
-39.67
-45.33
-49.80
-52.63
-53.47
-52.26
-49.34
-45.41
-41.33
-37.87
-35.46
-34.12
-33.65
-33.74
-34.18
-34.90
-35.93
-37.24
-38.70
-40.01
-40.78
-40.71
-39.64
-37.60
-34.77
-31.42
-27.73
-23.84
-19.75
-15.47
-11.09
-6.80
-2.84
0.63
3.53
6.00
8.14
9.99
11.42
12.21
12.19
11.32
9.76
7.71
5.33
2.66
-0.36
-3.70
-7.15
-10.26
-12.41
-12.98
-11.60
-8.28
-3.47
2.08
7.56
12.36
16.31
19.63
22.78
26.07
29.37
32.02
33.14
32.11
28.84
23.96
18.41
13.10
8.47
4.50
0.92
-2.52
-5.80
-8.76
-11.19
-13.05
-14.45
-15.46
-15.97
-15.65
-14.13
-11.26
-7.32
-2.90
1.27
4.71
7.28
9.22
10.96
12.78
14.74
16.56
17.90
18.56
18.65
18.56
18.87
20.00
21.97
24.37
26.55
27.90
28.11
27.25
25.57
23.25
20.26
16.34
11.32
5.29
-1.28
-7.75
-13.54
-18.39
-22.42
-25.94
-29.26
-32.48
-35.47
-38.00
-39.82
-40.78
-40.83
-39.97
-38.13
-35.22
-31.18
-26.02
-19.87
-12.98
-5.74
1.31
7.52
12.27
15.15
16.19
15.87
14.97
14.16
13.67
13.18
12.07
9.91
6.81
3.50
1.00
0.05
0.75
2.51
4.37
5.50
5.49
4.44
2.74
0.86
-0.91
-2.36
-3.34
-3.65
-3.03
-1.23
1.80
5.85
10.38
14.67
18.03
20.06
20.73
20.42
19.68
18.94
18.32
17.54
16.07
13.47
9.63
4.86
-0.20
-4.87
-8.63
-11.26
-12.83
-13.63
-14.06
-14.45
-15.01
-15.63
-16.00
-15.68
-14.34
-12.01
-9.03
-5.98
-3.38
-1.48
-0.18
0.82
1.78
2.79
3.71
4.33
4.62
4.81
5.38
6.81
9.31
12.70
16.45
19.88
22.40
23.72
23.75
22.55
20.16
16.61
12.02
6.75
1.44
-3.22
-6.68
-8.84
-10.07
-11.15
-12.90
-15.88
-20.15
-25.23
-30.16
-33.84
-35.25
-33.73
-29.02
-21.39
-11.54
-0.47
10.65
20.72
28.94
34.96
38.82
40.81
41.26
40.45
38.64
36.13
33.29
30.51
28.04
25.91
23.95
21.91
19.56
16.76
13.45
9.53
4.96
-0.17
-5.49
-10.41
-14.30
-16.73
-17.73
-17.77
-17.53
-17.58
-18.16
-19.11
-20.07
-20.70
-20.83
-20.42
-19.50
-18.01
-15.75
-12.50
-8.16
-2.86
3.01
8.89
14.23
18.59
21.74
23.60
24.19
23.63
22.16
20.16
18.06
16.30
15.12
14.45
13.94
13.17
11.86
10.11
8.25
6.72
5.71
5.07
4.36
3.15
1.23
-1.27
-3.98
-6.42
-8.24
-9.20
-9.26
-8.58
-7.46
-6.34
-5.65
-5.63
-6.19
-6.97
-7.53
-7.52
-6.92
-5.96
-4.93
-4.05
-3.31
-2.52
-1.45
0.03
1.84
3.73
5.34
6.44
6.92
6.87
6.49
5.92
5.21
4.36
3.39
2.54
2.20
2.74
4.27
6.41
8.36
9.15
8.12
5.19
0.96
-3.56
-7.39
-9.91
-11.08
-11.24
-10.93
-10.57
-10.39
-10.43
-10.62
-10.83
-10.88
-10.55
-9.62
-7.96
-5.63
-2.85
0.06
2.77
5.08
6.86
8.12
8.90
9.30
9.53
9.85
10.45
11.34
12.28
12.87
12.73
11.68
9.86
7.69
5.72
4.31
3.58
3.28
2.96
2.24
0.85
-1.13
-3.44
-5.69
-7.53
-8.71
-9.13
-8.87
-8.18
-7.45
-7.16
-7.69
-9.17
-11.43
-14.01
-16.34
-17.87
-18.19
-16.99
-14.17
-9.71
-3.85
2.98
10.14
16.87
22.49
26.63
29.24
30.69
31.55
32.39
33.51
34.84
35.95
36.25
35.36
33.28
30.47
27.71
25.71
24.94
25.43
26.85
28.65
30.22
31.01
30.55
28.51
24.86
19.95
14.53
9.65
6.31
5.13
6.20
9.10
13.06
17.29
21.17
24.32
26.62
28.10
28.90
29.31
29.75
30.65
32.40
35.18
38.84
42.91
46.74
49.67
51.30
51.56
50.73
49.18
47.14
44.58
41.22
36.73
31.04
24.28
16.88
9.26
1.76
-5.37
-12.01
-17.94
-22.96
-26.89
-29.75
-31.74
-33.33
-35.07
-37.46
-40.83
-45.21
-50.37
-55.85
-61.00
-65.16
-67.74
-68.35
-66.92
-63.78
-59.48
-54.69
-49.98
-45.77
-42.36
-40.01
-38.96
-39.28
-40.83
-42.99
-44.85
-45.40
-44.03
-40.80
-36.45
-32.03
-28.43
-26.03
-24.68
-23.99
-23.61
-23.44
-23.47
-23.55
-23.33
-22.32
-20.25
-17.22
-13.74
-10.40
-7.43
-4.62
-1.43
2.54
7.19
11.95
16.11
19.28
21.62
23.67
25.93
28.53
31.07
32.88
33.42
32.69
31.26
29.97
29.52
30.09
31.24
32.23
32.44
31.78
30.77
30.22
30.79
32.66
35.52
38.84
42.19
45.43
48.56
51.53
54.11
56.03
57.15
57.76
58.51
60.10
63.03
67.31
72.55
78.37
84.74
92.20
101.53
113.31
127.52
143.45
160.04
176.40
192.13
207.38
222.40
237.15
251.00
262.81
271.20
274.77
272.32
262.96
246.36
222.99
194.08
161.13
125.34
87.24
47.20
6.33
-32.86
-66.73
-92.09
-107.97
-116.47
-122.10
-129.93
-143.72
-165.00
-193.26
-226.75
-262.78
-297.54
-325.85
-342.08
-342.02
-325.08
-295.22
-259.50
-225.07
-196.26
-173.38
-153.85
-134.47
-113.35
-90.22
-65.45
-38.87
-9.25
24.88
64.02
106.59
148.98
186.32
213.58
226.60
223.25
204.30
173.90
138.79
106.24
81.31
64.72
52.74
39.17
18.56
-11.22
-48.10
-87.03
-122.38
-150.09
-168.79
-179.51
-184.69
-187.03
-188.88
-192.05
-197.89
-207.44
-221.34
-239.64
-261.35
-284.31
-305.42
-321.41
-329.88
-330.17
-323.58
-312.64
-299.84
-286.58
-272.65
-256.64
-237.02
-213.09
-185.37
-155.31
-124.64
-94.73
-66.53
-40.64
-17.55
2.60
20.35
36.96
53.88
71.65
89.10
103.41
111.23
110.35
100.76
84.78
65.98
47.90
33.05
22.75
17.50
17.24
21.46
29.10
38.50
47.76
55.32
60.34
62.75
63.05
61.83
59.57
56.56
52.92
48.67
43.86
38.61
33.24
28.38
24.83
23.38
24.57
28.36
34.16
40.95
47.52
52.73
55.56
55.15
50.99
43.22
32.94
22.21
13.57
9.01
9.09
12.44
16.29
17.77
15.30
9.35
2.19
-3.39
-5.49
-3.91
0.04
4.46
7.77
9.26
8.86
6.79
3.28
-1.41
-6.64
-11.36
-14.42
-15.13
-13.70
-11.14
-8.84
-7.88
-8.46
-9.90
-10.93
-10.31
-7.29
-1.77
5.64
13.85
21.49
27.15
29.92
29.51
26.21
20.74
14.07
7.13
0.61
-5.17
-10.66
-16.67
-24.15
-33.63
-44.65
-55.47
-63.72
-67.48
-66.29
-61.95
-57.27
-54.97
-56.72
-62.82
-72.43
-85.03
-100.82
-120.18
-143.56
-168.81
-191.79
-208.11
-214.69
-209.88
-194.18
-169.28
-137.26
-102.09
-66.06
-30.53
3.34
35.28
67.33
102.02
141.26
184.95
227.62
265.17
295.63
319.14
338.34
358.50
384.32
418.78
462.74
511.37
562.17
614.09
665.45
696.90
690.37
634.33
531.33
422.12
328.28
259.05
215.59
186.61
165.88
152.29
146.42
147.77
152.17
147.99
126.44
83.98
22.83
-49.21
-121.81
-186.64
-239.27
-279.23
-311.30
-338.06
-359.84
-376.35
-387.01
-391.79
-391.86
-388.82
-384.15
-380.56
-378.41
-376.42
-372.94
-366.26
-355.30
-339.88
-320.45
-297.94
-274.49
-251.64
-230.13
-209.86
-189.49
-167.05
-140.66
-109.42
-74.01
-36.72
-0.20
33.34
62.54
87.19
108.06
126.77
145.32
165.45
188.03
212.52
236.99
258.69
274.91
283.64
283.71
274.55
255.98
228.63
194.60
157.87
123.62
96.59
79.31
70.97
68.02
65.97
61.43
53.12
41.78
28.84
15.09
0.35
-15.89
-33.38
-50.52
-65.12
-75.57
-81.83
-85.34
-87.85
-90.15
-91.29
-89.16
-81.56
-67.39
-47.03
-21.85
6.61
37.28
69.53
102.84
136.42
169.15
199.61
226.19
247.19
260.59
264.42
257.35
239.61
213.35
182.82
153.66
131.32
118.96
115.83
117.49
117.81
111.66
97.12
75.80
51.35
26.95
3.90
-18.42
-41.41
-65.80
-91.08
-115.68
-137.57
-154.47
-164.01
-164.14
-154.22
-136.40
-115.96
-99.86
-93.71
-99.53
-115.42
-137.36
-161.61
-186.45
-212.20
-239.52
-267.20
-291.34
-306.42
-307.64
-292.82
-262.98
-221.28
-171.27
-115.54
-55.96
5.28
64.97
119.04
164.03
198.69
224.87
246.64
268.10
290.83
312.36
327.23
329.98
318.79
297.58
275.30
262.46
266.48
288.15
320.94
353.59
374.67
376.92
359.42
326.71
285.87
243.14
201.98
162.86
124.38
84.62
42.16
-3.67
-52.90
-105.16
-159.97
-216.96
-275.71
-335.38
-394.72
-452.01
-505.69
-555.30
-602.09
-649.10
-699.83
-756.18
-816.37
-874.18
-920.39
-945.62
-943.60
-912.97
-857.22
-782.39
-694.76
-599.68
-501.84
-405.94
-316.75
-238.04
-171.14
-114.30
-63.36
-13.56
38.49
93.63
149.73
201.72
242.93
266.84
269.68
252.81
223.45
192.63
170.80
163.20
167.63
176.45
181.74
180.40
175.60
173.90
180.22
193.86
208.42
215.81
211.35
196.62
178.28
163.95
157.87
159.44
164.85
170.58
176.20
184.69
200.33
226.20
262.24
304.60
346.35
378.82
393.49
384.41
350.52
296.98
234.43
175.46
129.39
98.39
77.00
55.95
28.01
-7.28
-43.33
-70.72
-83.12
-80.83
-69.95
-57.70
-47.25
-35.74
-16.58
15.89
62.32
117.63
173.55
222.60
260.61
286.96
302.95
309.97
308.60
298.67
279.74
251.46
213.50
166.05
110.76
51.71
-4.66
-50.92
-81.12
-92.78
-87.43
-69.35
-43.54
-14.19
15.61
42.93
64.23
75.54
74.33
61.44
41.69
22.04
8.24
1.77
-0.97
-6.42
-20.34
-44.52
-76.16
-109.57
-139.22
-162.20
-178.93
-192.09
-204.98
-220.49
-240.85
-267.72
-301.54
-340.32
-378.63
-407.96
-418.83
-404.04
-361.25
-293.68
-208.60
-114.47
-18.55
73.93
159.42
235.30
299.54
350.93
389.37
415.54
429.99
432.40
421.65
396.89
358.91
310.71
256.85
201.88
148.62
97.19
45.24
-10.64
-73.08
-142.06
-213.65
-280.35
-332.84
-362.59
-364.65
-339.42
-292.80
-234.62
-175.69
-124.63
-85.86
-59.32
-42.03
-30.25
-21.01
-12.79
-5.24
1.24
5.89
7.70
5.40
-2.06
-14.69
-30.51
-45.53
-55.40
-57.86
-54.63
-50.84
-51.89
-60.02
-72.32
-82.16
-82.83
-71.49
-50.30
-24.50
1.14
24.66
46.33
65.89
80.43
85.04
76.31
56.06
32.37
15.91
14.37
28.01
49.54
68.45
76.83
72.76
59.77
43.26
26.53
9.76
-8.38
-27.84
-46.00
-58.94
-64.27
-63.32
-60.94
-63.05
-72.76
-88.27
-103.28
-109.57
-100.47
-73.19
-29.31
26.29
86.99
146.02
197.24
235.63
257.58
260.92
245.12
211.59
163.98
108.06
51.20
0.70
-38.13
-63.30
-75.98
-79.75
-79.01
-77.85
-79.35
-85.08
-94.69
-105.54
-113.15
-112.91
-102.50
-83.33
-60.02
-37.77
-19.31
-3.91
10.93
26.24
39.20
43.97
35.44
13.45
-15.75
-41.82
-55.60
-53.53
-38.96
-19.61
-2.95
7.43
12.33
14.58
16.28
17.00
14.36
5.97
-8.58
-26.89
-44.63
-57.33
-62.00
-57.99
-47.14
-33.10
-20.26
-12.52
-12.10
-19.31
-32.82
-50.62
-70.83
-92.16
-113.60
-133.79
-150.77
-162.24
-166.40
-162.44
-150.63
-132.07
-108.25
-80.85
-51.82
-23.48
1.82
22.18
36.74
45.66
49.97
50.89
49.54
46.84
43.62
40.66
38.45
36.94
35.25
32.02
25.95
16.42
3.78
-10.92
-26.44
-41.87
-56.87
-71.52
-85.95
-100.05
-113.48
-125.96
-137.62
-149.19
-161.79
-176.55
-194.08
-214.08
-235.10
-254.57
-269.08
-274.97
-269.12
-249.65
-216.38
-170.65
-114.76
-51.21
17.55
89.15
160.87
229.26
290.37
340.41
376.75
398.53
406.66
403.08
389.94
368.82
340.75
306.56
267.59
225.91
184.13
144.77
109.63
79.61
54.76
34.87
19.81
9.45
3.29
0.08
-2.24
-6.10
-13.25
-24.00
-36.82
-48.83
-56.79
-58.20
-51.99
-38.74
-20.32
0.71
21.78
40.76
56.45
68.50
77.30
83.54
87.84
90.48
91.50
90.94
89.09
86.47
83.61
80.73
77.75
74.59
71.55
69.14
67.39
65.14
59.75
48.01
27.74
-0.73
-34.26
-68.11
-98.06
-122.17
-141.19
-157.38
-172.80
-187.78
-200.80
-209.39
-211.41
-205.97
-193.60
-175.83
-154.67
-132.18
-110.17
-90.06
-72.72
-58.58
-47.63
-39.86
-35.41
-34.83
-38.87
-48.29
-63.53
-84.55
-110.69
-140.35
-170.74
-197.73
-216.26
-221.23
-208.84
-177.99
-131.03
-73.55
-13.14
42.51
87.52
118.93
136.76
143.19
141.48
134.91
126.24
117.54
110.01
104.05
99.51
96.04
93.70
93.11
95.33
101.23
110.76
122.79
135.54
147.56
158.29
168.12
177.66
186.82
194.50
199.00
199.09
194.96
188.35
181.87
177.87
177.56
180.72
186.28
192.94
199.69
205.62
209.39
208.74
200.50
181.28
148.52
101.73
43.25
-21.82
-86.61
-144.17
-189.28
-219.71
-236.52
-243.28
-244.55
-244.21
-244.43
-245.34
-245.65
-243.55
-237.71
-227.66
-213.92
-197.66
-180.43
-163.89
-149.68
-139.32
-134.15
-134.88
-141.00
-150.09
-157.83
-158.96
-149.03
-126.39
-93.15
-54.60
-17.15
14.23
37.88
55.33
69.86
84.27
99.33
113.83
125.79
134.00
138.76
141.38
142.96
143.35
141.15
134.53
122.72
106.94
90.11
75.79
66.60
63.32
64.90
69.36
74.71
79.55
82.98
84.11
81.73
74.46
61.41
42.89
20.63
-2.64
-24.16
-41.98
-55.46
-64.97
-71.20
-74.66
-75.48
-73.80
-70.22
-66.00
-62.80
-61.98
-63.90
-67.60
-71.15
-72.51
-70.47
-65.33
-58.83
-53.51
-51.68
-54.51
-61.60
-71.35
-81.79
-91.51
-100.20
-108.60
-117.82
-128.61
-140.70
-152.69
-162.31
-167.03
-164.68
-154.18
-135.97
-112.32
-86.87
-63.63
-45.64
-34.00
-27.74
-24.61
-22.58
-20.82
-20.08
-21.99
-27.87
-37.72
-49.67
-60.24
-65.13
-60.44
-43.89
-15.67
21.33
62.25
101.75
135.55
161.48
179.45
190.46
195.61
195.59
190.97
182.85
173.25
164.61
158.76
156.12
155.64
155.74
155.50
155.39
157.01
162.06
171.24
183.66
197.31
209.82
219.08
223.18
220.04
207.20
182.58
145.77
99.37
49.08
2.35
-34.21
-57.12
-67.09
-68.06
-64.98
-61.44
-58.52
-55.14
-49.67
-41.51
-31.83
-23.20
-18.25
-18.39
-23.15
-30.38
-37.29
-41.68
-42.77
-41.36
-39.35
-38.83
-41.14
-46.42
-53.58
-60.97
-67.02
-70.94
-72.85
-73.63
-74.32
-75.57
-77.37
-78.87
-78.86
-76.26
-70.49
-61.83
-51.26
-40.16
-29.95
-21.78
-16.34
-13.89
-14.40
-17.62
-23.06
-30.03
-37.45
-44.04
-48.45
-49.66
-47.27
-41.71
-34.07
-25.76
-18.02
-11.65
-6.98
-4.08
-2.99
-3.93
-7.13
-12.70
-20.36
-29.46
-39.11
-48.47
-56.90
-64.00
-69.64
-73.73
-76.28
-77.23
-76.47
-73.79
-68.92
-61.61
-51.81
-39.77
-26.18
-12.20
0.73
10.97
17.04
17.98
13.63
4.78
-6.82
-18.48
-27.01
-29.20
-22.77
-7.21
15.68
41.96
66.77
85.96
97.73
103.12
105.13
107.00
110.44
114.95
118.47
118.91
115.40
108.68
100.36
91.82
83.49
74.87
65.31
54.73
43.96
34.33
26.86
21.66
17.71
13.20
6.23
-4.46
-19.01
-36.38
-54.75
-72.12
-86.77
-97.62
-104.12
-106.08
-103.50
-96.49
-85.42
-70.99
-54.23
-36.31
-18.34
-1.19
14.62
28.76
40.96
50.99
58.76
64.45
68.57
71.83
74.96
78.33
81.86
85.07
87.29
88.05
87.13
84.60
80.48
74.60
66.59
56.23
43.74
30.12
16.87
5.50
-3.10
-9.04
-13.46
-17.99
-23.96
-31.78
-40.64
-48.94
-55.05
-58.16
-58.84
-58.84
-60.45
-65.38
-74.02
-85.03
-95.77
-103.15
-104.58
-98.76
-85.94
-67.69
-46.22
-23.80
-2.24
17.24
33.90
47.23
56.75
62.19
63.77
62.32
59.09
55.18
50.96
45.86
38.68
28.38
14.85
-0.85
-16.77
-30.78
-41.32
-47.64
-49.79
-48.27
-43.88
-37.56
-30.30
-22.96
-15.91
-8.83
-0.92
8.60
19.93
32.39
44.59
54.94
62.20
65.80
65.81
62.77
57.48
50.94
44.25
38.32
33.41
28.90
23.37
15.36
4.28
-8.99
-22.23
-32.76
-38.63
-39.27
-35.69
-29.68
-23.01
-16.71
-10.97
-5.52
-0.15
4.94
9.23
12.16
13.46
13.34
12.39
11.42
11.06
11.60
12.91
14.52
15.90
16.68
16.82
16.47
15.86
15.04
13.77
11.63
8.15
2.99
-3.92
-12.33
-21.82
-31.86
-42.08
-52.39
-63.03
-74.34
-86.47
-98.89
-110.37
-119.39
-124.80
-126.60
-126.09
-125.52
-127.10
-132.18
-140.94
-152.75
-166.62
-181.42
-195.62
-207.06
-213.10
-211.58
-202.11
-186.72
-169.33
-153.91
-142.52
-134.41
-126.78
-116.71
-102.95
-86.50
-69.60
-54.08
-40.01
-25.61
-8.35
13.55
39.90
68.51
95.93
118.97
136.03
147.83
157.09
167.21
180.57
197.33
215.31
231.10
241.86
246.63
246.41
243.19
238.46
232.45
224.25
212.92
198.47
182.19
166.19
152.34
141.46
133.01
125.61
117.77
108.63
98.19
87.18
76.56
66.89
58.09
49.43
39.90
28.82
16.34
3.62
-7.39
-14.61
-16.57
-12.89
-4.40
7.14
19.62
31.17
40.39
46.44
48.85
47.29
41.61
32.01
19.25
4.82
-9.38
-21.45
-30.18
-35.37
-37.82
-38.79
-39.38
-40.07
-40.55
-40.17
-38.44
-35.32
-31.34
-27.22
-23.59
-20.64
-18.25
-16.08
-13.87
-11.63
-9.57
-8.09
-7.43
-7.68
-8.67
-10.11
-11.78
-13.66
-16.02
-19.21
-23.56
-29.19
-35.88
-43.08
-50.00
-55.69
-59.24
-60.02
-57.84
-53.09
-46.59
-39.38
-32.43
-26.30
-21.13
-16.57
-12.03
-6.91
-0.85
6.07
13.20
19.47
23.66
24.89
23.03
18.84
13.70
9.15
6.32
5.70
7.19
10.37
14.81
20.13
25.88
31.49
36.27
39.64
41.35
41.59
40.84
39.52
37.84
35.76
33.11
29.83
26.06
22.05
18.06
14.28
10.75
7.55
4.75
2.38
0.31
-1.78
-4.37
-7.78
-12.09
-17.01
-21.94
-26.31
-29.65
-31.75
-32.53
-31.95
-29.95
-26.38
-21.20
-14.54
-6.88
1.03
8.22
13.68
16.71
17.22
15.82
13.74
12.47
13.24
16.68
22.62
30.23
38.35
45.82
51.79
55.70
57.37
56.74
53.88
48.89
41.99
33.70
24.87
16.64
10.08
5.81
3.62
2.66
1.73
-0.03
-2.82
-6.20
-9.42
-12.00
-13.98
-15.90
-18.37
-21.78
-26.02
-30.64
-35.07
-38.87
-41.87
-44.04
-45.51
-46.36
-46.71
-46.76
-46.84
-47.33
-48.53
-50.43
-52.64
-54.38
-54.77
-53.17
-49.30
-43.32
-35.67
-26.92
-17.66
-8.51
-0.12
6.94
12.26
15.74
17.65
18.42
18.43
17.84
16.54
14.36
11.21
7.30
3.05
-1.05
-4.57
-7.29
-9.14
-10.20
-10.63
-10.62
-10.38
-10.11
-9.98
-10.07
-10.40
-11.01
-11.96
-13.46
-15.72
-18.83
-22.72
-27.04
-31.29
-34.97
-37.81
-39.92
-41.72
-43.83
-46.82
-50.94
-55.97
-61.09
-65.11
-66.78
-65.19
-60.00
-51.57
-40.80
-28.80
-16.66
-5.27
4.67
12.67
18.48
22.17
24.12
24.99
25.49
26.11
26.89
27.41
27.06
25.45
22.71
19.59
17.18
16.39
17.52
20.06
22.97
25.10
25.72
24.76
22.69
20.20
17.74
15.44
13.09
10.46
7.48
4.29
1.16
-1.67
-4.13
-6.33
-8.44
-10.66
-13.13
-15.97
-19.37
-23.52
-28.53
-34.17
-39.78
-44.20
-46.18
-44.69
-39.36
-30.70
-19.89
-8.52
2.01
10.80
17.56
22.54
26.22
29.01
31.18
32.83
34.00
34.73
35.05
34.89
34.08
32.42
29.85
26.59
23.22
20.41
18.74
18.33
18.85
19.54
19.64
18.71
16.75
14.12
11.24
8.33
5.30
1.90
-2.04
-6.45
-11.04
-15.47
-19.54
-23.36
-27.20
-31.39
-36.11
-41.36
-46.90
-52.33
-57.09
-60.47
-61.78
-60.39
-56.06
-48.94
-39.56
-28.77
-17.47
-6.47
3.63
12.49
19.95
26.01
30.78
34.40
36.95
38.46
38.89
38.22
36.55
34.16
31.55
29.30
28.00
27.95
29.04
30.78
32.52
33.58
33.55
32.24
29.65
25.91
21.27
16.14
11.02
6.50
2.93
0.31
-1.78
-3.99
-6.92
-10.87
-15.80
-21.48
-27.62
-33.97
-40.20
-45.75
-49.83
-51.50
-49.98
-45.00
-36.87
-26.52
-15.20
-4.09
5.89
14.30
21.09
26.51
30.89
34.52
37.45
39.57
40.63
40.50
39.17
36.91
34.21
31.58
29.44
28.00
27.21
26.88
26.72
26.51
26.09
25.46
24.57
23.35
21.68
19.34
16.19
12.22
7.59
2.55
-2.56
-7.53
-12.22
-16.59
-20.61
-24.22
-27.38
-30.17
-32.79
-35.51
-38.56
-41.87
-45.01
-47.32
-48.02
-46.54
-42.60
-36.24
-27.74
-17.67
-6.72
4.20
14.14
22.35
28.46
32.61
35.34
37.25
38.74
39.84
40.28
39.81
38.36
36.25
33.94
31.89
30.36
29.35
28.75
28.34
28.04
27.83
27.71
27.64
27.42
26.78
25.44
23.29
20.38
17.05
13.69
10.63
7.97
5.51
2.91
-0.17
-3.84
-7.92
-12.08
-15.98
-19.46
-22.58
-25.57
-28.72
-32.30
-36.39
-40.99
-45.88
-50.63
-54.54
-56.76
-56.50
-53.27
-47.07
-38.41
-28.21
-17.50
-7.22
2.00
9.89
16.49
22.02
26.66
30.50
33.42
35.30
36.06
35.81
34.84
33.50
32.14
30.92
29.93
29.20
28.79
28.80
29.22
29.88
30.47
30.62
30.09
28.85
26.98
24.64
21.88
18.67
14.96
10.84
6.53
2.42
-1.19
-4.21
-6.85
-9.45
-12.37
-15.67
-19.18
-22.59
-25.65
-28.27
-30.62
-32.94
-35.41
-38.15
-41.22
-44.66
-48.51
-52.59
-56.34
-58.82
-58.93
-55.84
-49.47
-40.51
-30.31
-20.27
-11.41
-4.13
1.73
6.57
10.66
13.98
16.33
17.57
17.66
16.91
15.69
14.39
13.22
12.26
11.42
10.57
9.62
8.42
6.94
5.27
3.79
3.28
4.77
9.23
17.07
27.83
40.15
52.23
62.36
69.42
72.99
73.20
70.29
64.51
56.11
45.61
33.93
22.27
11.80
3.28
-3.16
-7.82
-11.18
-13.66
-15.68
-17.70
-20.37
-24.26
-29.54
-35.62
-41.18
-44.62
-44.71
-41.21
-34.97
-27.43
-19.95
-13.23
-7.24
-1.58
4.04
9.43
13.99
17.09
18.47
18.29
17.10
15.41
13.57
11.69
9.83
8.13
6.84
6.26
6.56
7.68
9.35
11.23
12.95
14.23
14.93
15.03
14.57
13.65
12.24
10.19
7.19
2.90
-2.76
-9.54
-16.84
-23.87
-30.04
-35.13
-39.29
-42.98
-46.62
-50.40
-54.24
-57.90
-61.06
-63.44
-64.69
-64.46
-62.34
-58.01
-51.35
-42.57
-32.21
-21.04
-9.91
0.41
9.43
16.92
22.92
27.60
31.21
33.84
35.55
36.35
36.41
36.04
35.65
35.53
35.74
36.07
36.18
35.89
35.27
34.59
34.12
33.85
33.46
32.50
30.66
27.95
24.78
21.72
19.13
17.13
15.48
13.87
12.05
9.89
7.46
4.83
2.13
-0.57
-3.12
-5.33
-7.00
-7.91
-7.95
-7.16
-5.75
-4.04
-2.51
-1.58
-1.51
-2.15
-2.87
-2.81
-1.11
2.62
8.04
14.23
20.01
24.32
26.60
26.83
25.34
22.60
19.06
15.17
11.47
8.61
7.28
8.02
10.91
15.47
20.68
25.29
28.21
28.93
27.69
25.36
23.01
21.48
21.03
21.31
21.49
20.52
17.35
11.15
1.43
-11.74
-27.65
-44.96
-61.98
-77.01
-88.75
-96.57
-100.58
-101.50
-100.46
-98.65
-97.05
-96.11
-95.69
-94.92
-92.66
-87.90
-80.22
-69.87
-57.73
-44.79
-31.89
-19.45
-7.57
3.87
14.99
25.80
36.27
46.33
55.93
65.03
73.55
81.34
88.18
93.96
98.76
102.85
106.56
109.97
112.54
113.06
109.87
101.42
86.93
66.82
42.45
15.61
-12.06
-39.37
-65.35
-88.75
-107.92
-121.00
-126.58
-124.49
-116.02
-103.61
-90.09
-77.87
-68.56
-63.05
-61.74
-64.78
-72.07
-83.09
-96.79
-111.66
-125.94
-137.82
-145.80
-148.75
-146.18
-138.27
-125.87
-110.31
-93.13
-75.84
-59.81
-46.28
-36.25
-30.27
-28.19
-28.78
-29.73
-28.20
-21.58
-8.36
11.15
34.77
58.92
79.60
93.49
98.91
96.09
86.84
73.65
58.93
44.44
31.39
20.64
12.96
8.82
8.06
9.68
12.08
13.84
14.37
14.13
14.13
15.13
17.03
18.95
19.96
19.72
18.86
18.69
20.31
23.95
28.69
32.89
34.90
34.00
30.69
26.51
23.42
23.13
26.58
33.78
43.82
55.20
66.17
75.20
81.30
84.21
84.38
82.79
80.40
77.94
75.66
73.40
70.89
67.91
64.38
60.20
55.30
49.57
43.23
36.83
31.26
27.39
25.59
25.44
25.70
24.70
20.83
13.18
1.88
-11.92
-26.41
-39.55
-49.86
-56.68
-60.34
-61.81
-62.27
-62.74
-64.10
-67.10
-72.44
-80.38
-90.02
-99.02
-103.93
-101.43
-89.79
-69.83
-44.60
-17.99
6.96
29.00
48.39
65.78
81.04
92.92
99.69
100.40
95.47
86.59
75.85
64.78
53.87
42.93
31.78
20.75
10.71
2.46
-3.97
-9.66
-16.50
-26.27
-39.78
-56.26
-73.66
-89.38
-101.22
-108.11
-110.11
-108.13
-103.39
-97.14
-90.53
-84.75
-80.97
-79.93
-81.51
-84.41
-86.53
-85.78
-81.08
-72.72
-62.17
-51.16
-40.87
-31.75
-23.85
-17.38
-12.86
-10.78
-10.97
-12.24
-12.73
-10.73
-5.49
2.61
12.67
24.00
36.28
49.15
61.50
71.38
76.66
76.34
71.54
65.38
61.67
62.99
69.34
77.97
84.60
85.35
78.51
65.21
48.73
33.05
21.15
13.94
10.13
6.98
1.69
-7.43
-20.22
-34.70
-47.55
-55.07
-53.87
-41.74
-18.32
14.36
51.64
86.83
112.70
123.70
117.83
97.65
69.67
42.41
23.57
17.65
24.79
41.35
61.63
80.01
92.77
98.75
99.00
95.80
91.56
87.91
85.38
83.71
82.18
80.26
77.81
75.16
72.68
70.44
67.86
63.94
57.85
49.61
40.42
32.11
26.11
22.41
19.22
13.51
2.43
-15.42
-39.28
-66.58
-94.01
-118.64
-138.64
-153.42
-163.41
-169.59
-173.17
-175.14
-175.86
-174.79
-170.47
-161.06
-145.03
-121.80
-91.90
-56.75
-18.09
22.30
62.65
101.10
135.78
165.15
188.50
206.26
219.81
230.85
240.80
250.37
259.79
269.16
278.62
287.98
296.07
300.35
297.37
283.95
258.62
222.60
179.52
134.22
90.83
51.44
15.82
-17.71
-50.75
-83.48
-114.20
-140.11
-158.66
-168.99
-172.43
-171.95
-170.56
-169.73
-168.75
-165.41
-157.64
-145.15
-130.14
-116.49
-107.90
-106.14
-110.18
-117.01
-123.43
-128.11
-132.42
-139.86
-153.82
-175.35
-201.93
-227.94
-246.98
-254.62
-250.28
-237.32
-221.21
-207.12
-198.00
-194.12
-193.80
-194.49
-193.43
-187.80
-174.86
-152.58
-120.77
-81.78
-40.38
-1.96
29.49
53.08
70.84
86.17
101.84
118.52
135.05
149.74
161.81
171.94
181.82
192.96
205.55
218.11
227.70
230.61
223.35
203.70
171.42
129.05
81.86
37.01
1.56
-19.89
-27.16
-24.58
-18.85
-15.60
-16.39
-18.18
-15.41
-3.68
17.05
42.07
64.15
77.08
78.09
67.84
48.56
22.28
-9.09
-42.24
-71.18
-88.25
-87.66
-69.31
-40.12
-11.68
5.23
5.70
-7.58
-26.68
-43.34
-53.39
-57.98
-61.48
-67.78
-77.37
-87.06
-92.02
-88.61
-76.34
-57.82
-36.98
-16.89
1.67
19.92
39.51
60.59
80.93
96.54
103.53
100.17
87.93
70.74
53.21
38.53
27.36
18.18
8.73
-2.48
-15.28
-27.97
-38.48
-45.40
-48.60
-49.13
-48.60
-48.60
-50.19
-54.00
-60.36
-69.59
-82.09
-98.32
-118.56
-142.68
-169.61
-197.07
-221.67
-239.35
-246.24
-239.63
-218.61
-184.26
-139.16
-86.67
-30.15
27.35
83.06
134.43
179.07
214.57
238.54
248.75
243.46
222.51
188.25
146.13
103.94
69.85
49.88
45.89
55.38
72.80
92.29
109.83
124.13
135.86
145.97
154.34
159.46
159.21
152.11
138.37
119.96
99.82
80.60
63.44
47.67
31.41
12.97
-8.02
-30.11
-50.79
-67.97
-81.10
-91.64
-101.96
-113.94
-127.67
-141.41
-152.66
-159.62
-162.14
-161.45
-159.16
-156.03
-151.56
-144.56
-134.07
-120.24
-104.28
-87.84
-72.13
-57.46
-43.41
-29.30
-14.82
-0.11
14.38
28.25
41.36
53.66
65.07
75.28
83.92
90.74
96.09
100.86
106.33
113.39
121.67
129.00
131.61
125.27
106.89
76.06
35.37
-10.44
-56.24
-98.03
-133.53
-161.73
-181.86
-192.99
-194.42
-186.79
-172.70
-156.33
-141.78
-131.23
-124.27
-118.52
-111.55
-102.58
-92.94
-84.88
-79.77
-76.89
-73.58
-66.66
-54.14
-36.06
-14.14
9.26
32.29
53.87
73.36
90.08
103.06
111.35
114.46
112.67
106.86
98.17
87.56
75.80
63.55
51.52
40.39
30.65
22.39
15.42
9.50
4.63
1.13
-0.53
-0.11
2.13
5.38
8.60
10.95
12.12
12.30
11.87
11.16
10.17
8.81
7.05
5.17
3.62
2.77
2.65
2.87
2.86
2.27
1.20
0.16
-0.29
0.01
0.60
0.62
-0.74
-3.73
-7.76
-11.55
-13.61
-12.80
-8.70
-1.71
7.22
16.98
26.52
35.09
42.26
47.83
51.79
54.31
55.71
56.44
57.00
57.78
59.00
60.60
62.32
63.80
64.75
65.02
64.61
63.64
62.24
60.60
58.93
57.39
56.12
55.16
54.42
53.68
52.72
51.32
49.31
46.53
42.84
38.18
32.58
26.21
19.34
12.30
5.27
-1.73
-8.76
-15.87
-22.93
-29.70
-35.96
-41.59
-46.77
-51.81
-56.96
-62.21
-67.20
-71.15
-73.29
-72.95
-69.83
-64.03
-55.97
-46.38
-36.10
-25.96
-16.62
-8.42
-1.36
4.80
10.35
15.42
19.93
23.59
26.19
27.69
28.33
28.56
28.85
29.46
30.38
31.35
32.01
32.10
31.61
30.72
29.75
28.90
28.07
26.92
24.90
21.58
16.88
11.21
5.27
-0.22
-4.82
-8.61
-12.05
-15.72
-20.03
-25.00
-30.37
-35.64
-40.35
-44.18
-47.04
-48.98
-50.30
-51.45
-52.98
-55.39
-58.88
-63.16
-67.37
-70.32
-70.76
-67.73
-60.89
-50.62
-37.94
-24.22
-10.82
1.34
11.87
20.94
29.00
36.39
43.19
49.16
53.91
57.12
58.67
58.69
57.45
55.30
52.62
49.85
47.37
45.51
44.37
43.84
43.63
43.35
42.67
41.33
39.24
36.43
33.04
29.29
25.48
21.86
18.57
15.45
12.17
8.26
3.39
-2.47
-9.06
-15.87
-22.39
-28.26
-33.41
-38.00
-42.32
-46.71
-51.51
-56.97
-63.29
-70.46
-78.23
-86.13
-93.49
-99.70
-104.31
-107.02
-107.64
-106.03
-102.16
-96.12
-88.27
-79.30
-70.17
-61.99
-55.96
-53.13
-54.13
-58.58
-64.85
-70.00
-70.55
-63.56
-47.71
-23.82
5.51
36.90
67.25
94.38
117.09
134.91
147.75
155.90
160.01
161.01
159.98
157.64
154.22
149.49
143.11
134.93
125.23
114.65
103.96
93.79
84.39
75.56
66.78
57.42
47.02
35.63
23.80
12.33
1.86
-7.41
-15.91
-24.43
-33.85
-44.72
-56.97
-69.68
-81.25
-89.60
-92.76
-89.54
-80.01
-65.60
-48.68
-31.79
-16.91
-5.08
3.55
9.34
12.78
14.46
15.06
15.45
16.45
18.45
21.19
23.71
24.82
23.65
20.15
15.21
10.18
6.33
4.26
3.80
4.19
4.69
4.92
5.04
5.52
6.68
8.51
10.57
12.22
12.98
12.63
11.06
7.89
2.47
-5.77
-16.44
-27.66
-36.20
-38.67
-33.18
-20.44
-3.72
12.49
24.35
30.18
30.62
27.69
23.53
19.44
15.90
13.08
11.49
11.85
14.78
20.21
27.24
34.63
41.25
46.46
50.23
52.79
54.25
54.56
53.45
50.67
46.22
40.27
33.17
25.30
17.00
8.57
0.42
-6.88
-12.66
-16.24
-17.33
-16.19
-13.70
-11.06
-9.34
-9.04
-9.94
-11.29
-12.24
-12.24
-11.28
-9.85
-8.66
-8.39
-9.34
-11.35
-13.76
-15.65
-16.33
-15.66
-14.42
-14.28
-17.36
-25.56
-40.06
-60.84
-86.64
-115.14
-143.30
-168.02
-186.95
-199.05
-204.83
-205.90
-204.06
-200.40
-194.87
-186.57
-174.61
-159.11
-141.56
-124.29
-109.42
-97.51
-86.81
-73.51
-53.07
-22.08
20.11
70.87
124.95
176.16
219.27
251.28
271.61
281.47
282.73
277.20
266.34
251.38
233.46
213.76
193.25
172.65
152.30
132.15
111.84
91.02
69.62
48.16
27.94
10.58
-2.65
-11.49
-16.93
-20.83
-25.06
-30.75
-37.85
-45.44
-52.43
-58.24
-62.98
-67.22
-71.54
-76.12
-80.77
-85.11
-88.80
-91.64
-93.50
-94.18
-93.38
-90.82
-86.45
-80.50
-73.44
-65.86
-58.22
-50.76
-43.53
-36.53
-29.85
-23.56
-17.69
-12.10
-6.58
-0.94
4.71
9.98
14.33
17.36
19.00
19.57
19.68
19.89
20.58
21.77
23.26
24.79
26.09
27.05
27.61
27.75
27.46
26.77
25.71
24.33
22.68
20.78
18.70
16.51
14.33
12.24
10.25
8.26
6.14
3.77
1.09
-1.88
-5.03
-8.23
-11.35
-14.35
-17.30
-20.32
-23.60
-27.36
-31.64
-36.32
-41.01
-45.08
-47.83
-48.66
-47.28
-43.76
-38.53
-32.19
-25.38
-18.61
-12.21
-6.38
-1.25
3.10
6.61
9.32
11.32
12.76
13.81
14.70
15.63
16.76
18.17
19.76
21.31
22.52
23.12
23.12
22.70
22.16
21.78
21.55
21.26
20.54
19.09
16.85
14.02
10.95
8.08
5.68
3.80
2.29
0.88
-0.71
-2.60
-4.68
-6.73
-8.47
-9.78
-10.81
-11.82
-13.12
-14.89
-17.15
-19.86
-23.07
-26.87
-31.26
-35.94
-40.11
-42.63
-42.44
-39.02
-32.62
-24.19
-15.01
-6.20
1.57
8.16
13.70
18.43
22.51
25.97
28.72
30.74
32.04
32.72
32.91
32.74
32.32
31.73
31.05
30.33
29.72
29.31
29.17
29.21
29.22
28.97
28.25
27.05
25.52
23.83
22.10
20.30
18.29
15.90
13.08
9.89
6.61
3.47
0.59
-2.08
-4.80
-7.83
-11.36
-15.39
-19.69
-23.93
-27.85
-31.30
-34.37
-37.36
-40.63
-44.52
-49.17
-54.42
-59.84
-64.88
-69.06
-72.06
-73.77
-74.13
-72.98
-70.04
-65.05
-57.95
-49.01
-38.67
-27.26
-14.84
-1.19
13.81
29.85
46.01
60.78
72.70
80.80
85.00
86.06
85.15
83.28
80.86
77.74
73.40
67.29
59.15
49.06
37.22
23.87
9.45
-5.01
-17.61
-25.76
-27.13
-20.69
-7.61
8.95
24.92
36.80
42.90
43.57
40.50
35.56
29.95
23.86
17.05
9.44
1.51
-5.79
-11.59
-15.58
-18.14
-20.14
-22.52
-25.84
-30.10
-34.93
-39.80
-44.22
-47.78
-50.07
-50.57
-48.73
-44.15
-36.76
-27.00
-15.66
-3.89
7.15
16.44
23.29
27.49
29.28
29.20
27.86
25.77
23.21
20.29
17.10
13.80
10.68
8.12
6.48
5.94
6.51
8.01
10.16
12.55
14.79
16.48
17.37
17.40
16.66
15.37
13.62
11.39
8.42
4.39
-0.87
-7.12
-13.70
-19.58
-23.82
-25.92
-26.01
-24.79
-23.16
-21.81
-20.98
-20.56
-20.36
-20.38
-20.91
-22.26
-24.61
-27.76
-31.23
-34.44
-36.98
-38.57
-39.06
-38.28
-35.96
-32.03
-26.67
-20.47
-14.22
-8.70
-4.26
-0.85
1.91
4.44
6.88
9.03
10.39
10.49
9.10
6.41
2.92
-0.68
-3.75
-5.82
-6.61
-6.08
-4.35
-1.72
1.41
4.63
7.55
9.99
11.81
12.95
13.33
12.84
11.47
9.39
6.93
4.46
2.22
0.25
-1.60
-3.51
-5.65
-8.03
-10.58
-13.20
-15.81
-18.33
-20.66
-22.64
-24.18
-25.30
-26.09
-26.70
-27.21
-27.54
-27.36
-26.16
-23.40
-18.69
-12.00
-3.73
5.34
14.22
22.04
28.26
32.75
35.76
37.63
38.68
39.01
38.51
37.08
34.74
31.70
28.34
25.15
22.62
21.20
21.24
22.82
25.79
29.64
33.62
36.92
38.91
39.45
38.87
37.79
36.79
36.12
35.64
34.99
33.84
32.08
29.84
27.28
24.44
21.30
17.89
14.40
11.10
8.18
5.47
2.42
-1.68
-7.25
-14.28
-22.39
-31.21
-40.71
-51.11
-62.63
-74.88
-86.65
-96.11
-101.47
-101.76
-97.20
-88.98
-78.62
-67.20
-55.13
-42.25
-28.39
-13.85
0.50
13.54
24.42
32.93
39.56
45.10
50.33
55.49
60.36
64.46
67.29
68.65
68.71
67.91
66.85
66.14
66.18
67.01
68.25
69.12
68.73
66.32
61.50
54.40
45.50
35.46
24.96
14.64
5.01
-3.40
-10.13
-14.91
-17.78
-19.15
-19.70
-20.21
-21.26
-23.16
-25.87
-29.12
-32.51
-35.68
-38.53
-41.26
-44.38
-48.48
-54.06
-61.20
-69.42
-77.73
-84.88
-89.64
-91.17
-89.06
-83.39
-74.64
-63.56
-51.14
-38.43
-26.55
-16.32
-8.19
-2.07
2.56
6.34
9.74
12.90
15.53
17.23
17.72
17.07
15.70
14.12
12.81
11.98
11.61
11.53
11.55
11.51
11.26
10.62
9.44
7.63
5.30
2.67
0.03
-2.42
-4.63
-6.75
-8.96
-11.34
-13.81
-16.28
-18.78
-21.60
-25.23
-30.09
-36.24
-43.20
-50.12
-56.07
-60.51
-63.56
-65.96
-68.89
-73.38
-80.00
-88.50
-97.69
-105.34
-108.25
-102.65
-85.10
-53.97
-10.52
40.88
93.70
141.25
178.68
204.20
218.91
225.71
227.74
227.49
226.36
224.94
223.30
220.95
216.73
208.86
195.21
173.98
144.51
107.74
66.41
24.59
-13.25
-43.41
-64.01
-75.36
-79.63
-79.91
-79.03
-78.86
-79.99
-82.05
-84.27
-85.85
-86.25
-85.20
-82.72
-79.08
-74.76
-70.37
-66.49
-63.56
-61.79
-61.10
-61.19
-61.61
-61.87
-61.69
-61.07
-60.38
-60.22
-61.22
-63.73
-67.59
-72.09
-76.14
-78.47
-78.04
-74.34
-67.58
-58.55
-48.42
-38.38
-29.22
-21.17
-13.95
-7.11
-0.41
5.96
11.31
14.83
15.93
14.60
11.39
7.21
2.93
-0.89
-4.08
-6.82
-9.41
-12.09
-14.88
-17.57
-19.77
-21.07
-21.11
-19.82
-17.53
-15.03
-13.40
-13.81
-17.05
-23.20
-31.41
-40.04
-47.00
-50.31
-48.65
-41.65
-29.92
-14.73
2.31
19.58
35.64
49.37
60.17
68.10
73.99
79.32
85.72
94.45
105.84
119.18
132.94
145.43
155.43
162.47
166.87
169.46
171.21
173.26
177.03
184.28
196.87
215.95
240.92
268.74
293.98
310.14
311.44
294.65
259.82
210.04
150.24
85.81
21.45
-39.16
-93.33
-139.21
-175.63
-202.37
-220.26
-231.02
-236.69
-238.71
-237.45
-232.24
-222.24
-207.40
-189.18
-170.26
-153.67
-141.54
-134.33
-131.01
-129.85
-129.43
-129.14
-128.92
-128.71
-127.92
-125.46
-120.42
-112.72
-103.45
-94.64
-88.38
-86.07
-87.74
-92.04
-96.74
-99.39
-97.96
-91.18
-78.54
-60.16
-36.71
-9.46
19.64
47.99
72.70
91.15
101.71
104.13
99.49
89.79
77.42
64.70
53.96
47.36
46.66
52.65
64.48
79.52
93.87
103.66
106.33
101.59
91.14
77.72
63.96
51.44
40.65
31.50
23.90
18.09
14.39
12.82
12.84
13.42
13.45
12.22
9.76
6.80
4.27
2.86
2.64
3.00
2.96
1.58
-1.68
-6.76
-13.09
-19.78
-26.04
-31.38
-35.78
-39.59
-43.36
-47.50
-52.15
-57.17
-62.23
-66.96
-71.01
-74.06
-75.72
-75.61
-73.44
-69.20
-63.17
-56.00
-48.38
-40.85
-33.70
-26.92
-20.49
-14.56
-9.49
-5.79
-3.84
-3.66
-4.92
-7.05
-9.52
-11.95
-14.14
-16.03
-17.50
-18.26
-17.94
-16.16
-12.66
-7.43
-0.68
7.19
15.75
24.54
33.15
41.22
48.43
54.43
58.91
61.66
62.56
61.79
59.70
56.83
53.73
50.82
48.33
46.15
44.00
41.52
38.42
34.55
29.88
24.46
18.40
11.76
4.70
-2.52
-9.46
-15.52
-20.04
-22.41
-22.24
-19.52
-14.67
-8.42
-1.74
4.54
9.87
14.05
17.24
19.73
21.76
23.47
24.82
25.75
26.24
26.35
26.19
25.90
25.55
25.16
24.73
24.26
23.74
23.17
22.54
21.80
20.94
19.96
18.86
17.74
16.60
15.42
14.09
12.47
10.44
8.04
5.48
3.05
1.02
-0.49
-1.61
-2.63
-3.85
-5.47
-7.40
-9.44
-11.33
-12.93
-14.32
-15.76
-17.59
-20.10
-23.38
-27.29
-31.52
-35.64
-39.14
-41.52
-42.35
-41.23
-38.02
-32.83
-26.09
-18.51
-10.85
-3.78
2.33
7.39
11.46
14.71
17.23
19.14
20.53
21.50
22.17
22.57
22.66
22.34
21.62
20.66
19.72
19.12
18.99
19.30
19.82
20.26
20.47
20.43
20.23
19.99
19.73
19.41
18.91
18.10
16.93
15.38
13.46
11.20
8.64
5.83
2.84
-0.28
-3.52
-6.92
-10.48
-14.15
-17.81
-21.27
-24.35
-26.96
-29.16
-31.15
-33.21
-35.62
-38.55
-41.95
-45.57
-48.96
-51.48
-52.49
-51.40
-47.94
-42.27
-34.97
-26.91
-19.02
-11.99
-6.23
-1.81
1.36
3.46
4.63
5.00
4.80
4.23
3.50
2.63
1.52
-0.05
-2.17
-4.81
-7.73
-10.58
-13.10
-15.16
-16.85
-18.36
-19.87
-21.52
-23.37
-25.42
-27.63
-29.79
-31.50
-32.24
-31.44
-28.79
-24.40
-18.76
-12.47
-5.96
0.74
7.88
15.65
23.91
32.08
39.21
44.45
47.24
47.49
45.51
41.81
36.92
31.32
25.42
19.61
14.19
9.40
5.29
1.78
-1.28
-3.94
-5.99
-6.93
-6.12
-3.04
2.40
9.68
17.78
25.52
31.91
36.51
39.42
41.04
41.85
42.11
41.86
41.06
39.72
37.97
36.07
34.26
32.70
31.41
30.29
29.22
28.16
27.19
26.41
25.90
25.60
25.30
24.74
23.67
21.95
19.64
16.93
14.03
11.14
8.29
5.45
2.59
-0.31
-3.22
-6.13
-9.06
-12.04
-15.07
-18.10
-20.99
-23.64
-26.08
-28.43
-30.92
-33.74
-36.92
-40.35
-43.80
-46.95
-49.43
-50.86
-50.78
-48.80
-44.70
-38.60
-31.01
-22.71
-14.58
-7.28
-1.22
3.60
7.35
10.26
12.50
14.09
15.01
15.26
14.97
14.36
13.70
13.21
13.01
13.11
13.44
13.95
14.58
15.28
15.96
16.53
16.95
17.16
17.21
17.11
16.85
16.35
15.48
14.10
12.17
9.72
6.93
4.04
1.27
-1.23
-3.43
-5.49
-7.57
-9.84
-12.37
-15.12
-17.99
-20.81
-23.48
-25.95
-28.28
-30.64
-33.32
-36.62
-40.83
-45.99
-51.85
-57.88
-63.30
-67.36
-69.38
-69.03
-66.35
-61.76
-55.99
-49.90
-44.31
-39.77
-36.48
-34.30
-32.89
-31.92
-31.18
-30.61
-30.20
-29.91
-29.68
-29.45
-29.28
-29.19
-29.07
-28.60
-27.20
-24.33
-19.75
-13.65
-6.65
0.47
7.10
12.87
17.72
21.96
26.23
31.52
38.91
49.21
62.38
77.48
92.76
106.28
116.61
123.26
126.59
127.45
126.69
124.76
121.81
117.87
113.05
107.61
101.90
96.14
90.40
84.48
78.01
70.62
62.10
52.60
42.55
32.50
23.02
14.59
7.61
2.44
-0.71
-1.94
-1.73
-0.80
0.05
0.42
0.34
0.21
0.50
1.37
2.50
3.22
2.81
0.93
-2.22
-5.92
-9.29
-11.62
-12.65
-12.70
-12.39
-12.28
-12.58
-13.00
-13.02
-12.23
-10.68
-8.89
-7.61
-7.39
-8.32
-10.01
-11.82
-13.25
-14.14
-14.54
-14.69
-14.72
-14.64
-14.44
-14.17
-14.05
-14.43
-15.66
-17.96
-21.34
-25.53
-30.13
-34.67
-38.79
-42.38
-45.57
-48.61
-51.85
-55.47
-59.55
-63.96
-68.39
-72.35
-75.11
-75.80
-73.74
-68.62
-60.78
-51.16
-40.99
-31.42
-23.13
-16.29
-10.72
-6.19
-2.57
0.14
1.96
2.98
3.46
3.63
3.69
3.69
3.61
3.42
3.10
2.67
2.22
1.87
1.66
1.69
1.96
2.42
2.99
3.55
4.05
4.54
5.13
5.98
7.20
8.79
10.60
12.31
13.55
13.94
13.24
11.39
8.59
5.23
1.76
-1.45
-4.28
-6.79
-9.16
-11.55
-14.02
-16.58
-19.24
-22.20
-25.68
-29.72
-33.97
-37.53
-39.23
-37.96
-33.09
-24.71
-13.58
-0.76
12.66
25.89
38.48
50.16
60.83
70.34
78.57
85.40
90.72
94.49
96.69
97.35
96.59
94.66
91.98
89.04
86.27
83.89
81.85
79.78
77.20
73.66
68.89
62.90
55.90
48.29
40.55
33.13
26.27
20.00
14.08
8.18
1.94
-4.87
-12.30
-20.33
-28.93
-38.01
-47.40
-56.67
-65.10
-71.90
-76.44
-78.53
-78.51
-77.18
-75.53
-74.43
-74.38
-75.43
-77.16
-78.83
-79.50
-78.27
-74.44
-67.65
-57.97
-45.98
-32.62
-19.06
-6.37
4.64
13.64
20.90
27.01
32.75
38.80
45.49
52.72
60.07
66.97
72.92
77.80
81.89
85.91
90.73
97.04
104.91
113.50
121.04
125.20
123.87
115.79
101.13
81.43
58.92
35.84
13.73
-6.83
-25.89
-43.84
-61.22
-78.53
-96.10
-113.81
-130.67
-144.85
-154.22
-157.36
-154.40
-147.29
-139.03
-132.38
-128.76
-127.65
-127.24
-125.48
-121.04
-113.84
-104.70
-94.88
-85.49
-77.28
-70.60
-65.56
-62.10
-59.89
-58.28
-56.02
-51.35
-42.42
-28.00
-8.21
15.17
39.04
60.02
75.56
84.77
88.51
88.71
87.45
86.18
85.53
85.45
85.61
85.65
85.26
84.13
81.93
78.36
73.24
66.74
59.37
51.91
45.14
39.61
35.35
31.79
28.02
23.17
16.83
9.32
1.67
-4.91
-9.53
-12.07
-13.19
-13.93
-15.26
-17.70
-21.25
-25.54
-30.05
-34.38
-38.27
-41.63
-44.50
-47.03
-49.47
-52.10
-55.11
-58.45
-61.80
-64.50
-65.75
-64.74
-60.97
-54.31
-45.16
-34.38
-23.08
-12.39
-3.18
4.08
9.34
12.92
15.31
17.02
18.47
19.95
21.62
23.48
25.44
27.27
28.74
29.71
30.17
30.31
30.35
30.49
30.84
31.42
32.18
33.00
33.74
34.18
34.03
33.07
31.19
28.49
25.31
22.06
19.12
16.63
14.44
12.14
9.29
5.57
1.01
-4.05
-9.07
-13.56
-17.29
-20.36
-23.16
-26.25
-30.11
-34.98
-40.78
-47.06
-53.05
-57.84
-60.53
-60.50
-57.55
-51.96
-44.45
-35.99
-27.60
-20.07
-13.83
-8.85
-4.70
-0.74
3.53
8.23
13.03
17.22
20.09
21.20
20.60
18.78
16.48
14.35
12.76
11.78
11.25
10.88
10.38
9.51
8.09
6.06
3.57
0.93
-1.47
-3.39
-4.79
-5.91
-6.99
-8.17
-9.36
-10.31
-10.85
-11.00
-10.96
-10.98
-11.21
-11.79
-12.85
-14.58
-16.95
-19.43
-20.75
-19.10
-12.82
-1.12
15.39
34.71
54.08
70.79
83.05
90.27
93.07
92.89
91.51
90.58
91.14
93.43
96.86
100.27
102.47
102.65
100.59
96.66
91.41
85.33
78.60
71.12
62.52
52.30
40.05
25.50
8.82
-9.33
-27.80
-45.04
-59.47
-69.82
-75.47
-76.59
-74.00
-68.97
-62.84
-56.75
-51.42
-47.12
-43.78
-41.15
-38.92
-36.85
-34.82
-32.85
-31.08
-29.72
-29.01
-29.08
-29.84
-30.99
-32.13
-32.94
-33.32
-33.45
-33.62
-34.12
-35.03
-36.19
-37.28
-38.01
-38.25
-38.13
-38.07
-38.58
-40.08
-42.70
-46.25
-50.18
-53.75
-56.09
-56.41
-54.14
-49.10
-41.55
-32.13
-21.85
-11.77
-2.89
4.10
8.93
11.85
13.46
14.54
15.67
17.11
18.67
19.84
20.12
19.24
17.28
14.63
12.03
10.56
11.42
15.70
23.81
35.10
47.78
59.44
67.85
71.78
71.37
67.86
62.92
57.82
53.07
48.51
43.68
38.29
32.36
26.27
20.34
14.83
9.80
5.12
0.61
-3.89
-8.45
-13.09
-17.73
-22.28
-26.59
-30.56
-34.14
-37.43
-40.64
-43.99
-47.62
-51.37
-54.88
-57.59
-58.97
-58.65
-56.47
-52.52
-47.01
-40.31
-32.85
-25.22
-18.02
-11.82
-6.99
-3.52
-1.03
1.19
3.88
7.55
12.24
17.56
22.87
27.57
31.40
34.49
37.22
39.93
42.77
45.51
47.74
49.08
49.37
48.69
47.27
45.35
43.05
40.48
37.70
34.76
31.75
28.68
25.48
22.11
18.61
15.18
12.05
9.37
7.01
4.63
1.85
-1.50
-5.24
-8.88
-11.99
-14.41
-16.39
-18.48
-21.27
-25.10
-29.99
-35.58
-41.30
-46.48
-50.39
-52.33
-51.71
-48.23
-42.06
-33.86
-24.66
-15.58
-7.55
-1.07
3.82
7.49
10.46
13.20
15.88
18.39
20.39
21.57
21.80
21.24
20.28
19.36
18.85
18.87
19.41
20.39
21.64
23.01
24.30
25.28
25.78
25.78
25.39
24.72
23.89
22.89
21.61
19.93
17.80
15.30
12.59
9.85
7.18
4.62
2.14
-0.32
-2.82
-5.34
-7.83
-10.27
-12.71
-15.30
-18.24
-21.67
-25.61
-29.96
-34.55
-39.16
-43.55
-47.35
-50.09
-51.17
-50.09
-46.65
-41.05
-33.87
-25.92
-17.95
-10.47
-3.73
2.24
7.41
11.78
15.30
17.95
19.81
21.05
21.90
22.57
23.21
23.89
24.66
25.54
26.59
27.80
29.11
30.34
31.34
31.93
32.05
31.73
31.08
30.18
28.99
27.33
24.98
21.78
17.72
13.09
8.33
3.94
0.28
-2.48
-4.42
-5.77
-6.85
-8.04
-9.70
-12.08
-15.28
-19.15
-23.31
-27.34
-30.93
-34.04
-36.90
-39.83
-43.05
-46.50
-49.82
-52.42
-53.65
-52.96
-50.01
-44.86
-37.89
-29.80
-21.38
-13.33
-6.10
0.19
5.62
10.36
14.45
17.85
20.49
22.27
23.16
23.18
22.42
21.09
19.49
18.02
17.06
16.80
17.17
17.90
18.67
19.33
19.91
20.59
21.49
22.50
23.29
23.49
22.88
21.49
19.51
17.22
14.84
12.54
10.36
8.34
6.47
4.63
2.65
0.27
-2.63
-6.00
-9.53
-12.83
-15.57
-17.66
-19.39
-21.28
-23.92
-27.70
-32.64
-38.29
-43.93
-48.72
-51.95
-53.21
-52.34
-49.40
-44.57
-38.13
-30.47
-22.15
-13.89
-6.36
-0.03
4.95
8.73
11.65
14.01
16.01
17.76
19.28
20.51
21.19
20.89
19.09
15.50
10.39
4.71
0.03
-1.86
0.46
7.60
19.08
33.37
48.27
61.46
70.99
75.78
75.77
71.71
64.79
56.17
46.78
37.21
27.90
19.14
11.07
3.61
-3.51
-10.60
-17.80
-24.88
-31.36
-36.78
-40.93
-44.01
-46.48
-48.94
-51.76
-55.06
-58.55
-61.66
-63.61
-63.63
-61.21
-56.31
-49.45
-41.57
-33.68
-26.61
-20.69
-15.81
-11.59
-7.61
-3.60
0.50
4.58
8.40
11.71
14.33
16.19
17.39
18.16
18.82
19.69
20.96
22.65
24.64
26.68
28.47
29.81
30.65
31.04
31.07
30.86
30.41
29.65
28.50
26.87
24.77
22.25
19.41
16.35
13.23
10.22
7.47
5.03
2.81
0.68
-1.58
-4.08
-6.85
-9.86
-13.07
-16.55
-20.45
-24.97
-30.13
-35.71
-41.15
-45.65
-48.35
-48.49
-45.71
-40.10
-32.31
-23.25
-13.91
-5.11
2.65
9.18
14.54
18.86
22.31
25.01
27.08
28.60
29.69
30.42
30.78
30.71
30.17
29.20
27.99
26.85
26.13
25.98
26.42
27.20
27.92
28.25
28.00
27.18
25.90
24.31
22.45
20.26
17.66
14.59
11.08
7.32
3.49
-0.18
-3.61
-6.84
-9.97
-13.12
-16.27
-19.27
-21.95
-24.21
-26.13
-27.98
-30.11
-32.82
-36.33
-40.65
-45.61
-50.92
-56.05
-60.27
-62.75
-62.75
-59.87
-54.28
-46.64
-37.97
-29.26
-21.24
-14.31
-8.55
-3.89
-0.18
2.67
4.84
6.45
7.69
8.66
9.41
9.90
10.06
9.83
9.22
8.30
7.22
6.21
5.68
6.09
7.89
11.38
16.49
22.76
29.41
35.48
40.12
42.80
43.43
42.30
39.97
36.98
33.77
30.55
27.34
24.03
20.54
16.81
12.86
8.77
4.60
0.43
-3.63
-7.48
-11.01
-14.21
-17.25
-20.49
-24.30
-28.94
-34.28
-39.79
-44.58
-47.67
-48.26
-45.93
-40.78
-33.30
-24.26
-14.48
-4.70
4.51
12.72
19.76
25.63
30.43
34.35
37.46
39.81
41.41
42.28
42.53
42.30
41.80
41.16
40.46
39.64
38.66
37.52
36.28
35.04
33.84
32.62
31.19
29.37
27.04
24.16
20.88
17.35
13.77
10.31
7.09
4.19
1.65
-0.59
-2.68
-4.83
-7.22
-9.94
-12.91
-15.89
-18.64
-21.02
-23.07
-25.09
-27.43
-30.40
-34.09
-38.35
-42.84
-47.10
-50.65
-52.97
-53.58
-52.08
-48.24
-42.13
-34.17
-25.01
-15.41
-6.10
2.34
9.46
14.99
18.78
20.86
21.62
21.81
22.62
25.40
31.23
40.42
52.24
64.98
76.48
84.78
88.84
88.67
85.16
79.59
73.11
66.51
60.15
54.16
48.51
43.07
37.63
31.96
25.93
19.59
13.16
7.00
1.42
-3.42
-7.59
-11.32
-14.93
-18.68
-22.68
-26.81
-30.74
-34.07
-36.52
-38.15
-39.30
-40.47
-42.05
-44.01
-45.77
-46.31
-44.53
-39.70
-31.82
-21.74
-10.90
-0.86
7.19
12.81
16.17
17.85
18.45
18.31
17.50
15.90
13.36
9.73
4.88
-1.26
-8.67
-17.01
-25.63
-33.62
-40.15
-44.74
-47.47
-48.90
-49.89
-51.24
-53.40
-56.26
-59.06
-60.50
-59.18
-54.13
-45.34
-33.96
-22.02
-11.65
-4.32
-0.34
1.15
1.52
1.93
2.90
4.26
5.45
6.02
5.82
5.05
4.05
3.07
2.17
1.18
-0.16
-2.14
-4.82
-7.97
-11.02
-13.07
-13.18
-10.63
-5.16
2.87
12.53
22.59
31.74
38.86
43.14
44.17
41.99
37.05
30.21
22.54
15.10
8.67
3.57
-0.27
-3.13
-5.25
-6.71
-7.38
-7.10
-5.86
-3.86
-1.47
0.87
2.93
4.61
5.99
7.18
8.20
9.00
9.48
9.54
9.15
8.39
7.37
6.26
5.22
4.29
3.37
2.31
0.89
-1.01
-3.38
-6.05
-8.80
-11.44
-13.87
-16.17
-18.40
-20.66
-22.97
-25.28
-27.67
-30.29
-33.28
-36.76
-40.62
-44.36
-47.22
-48.36
-47.09
-43.16
-36.81
-28.65
-19.47
-9.99
-0.75
7.84
15.49
21.95
27.01
30.64
33.00
34.35
35.05
35.35
35.38
35.18
34.79
34.27
33.77
33.37
33.06
32.79
32.54
32.30
32.09
31.85
31.42
30.62
29.39
27.85
26.39
25.47
25.40
26.14
27.26
28.16
28.32
27.46
25.60
22.96
19.73
16.05
12.00
7.67
3.22
-1.07
-4.80
-7.62
-9.32
-10.03
-10.31
-10.89
-12.54
-15.68
-20.21
-25.55
-30.81
-35.05
-37.47
-37.52
-34.94
-29.83
-22.68
-14.39
-6.04
1.38
7.28
11.53
14.40
16.22
17.19
17.31
16.54
14.95
12.74
10.28
7.94
6.03
4.73
4.11
4.18
4.90
6.19
7.96
10.09
12.42
14.78
16.99
18.87
20.25
21.08
21.38
21.24
20.76
19.97
18.79
17.07
14.71
11.65
8.03
4.01
-0.19
-4.46
-8.77
-13.17
-17.73
-22.52
-27.50
-32.68
-38.05
-43.61
-49.21
-54.55
-59.05
-61.97
-62.59
-60.48
-55.64
-48.59
-40.21
-31.43
-23.06
-15.56
-9.14
-3.84
0.32
3.31
5.15
6.04
6.37
6.57
7.03
7.96
9.33
10.93
12.51
13.85
14.86
15.64
16.40
17.47
19.13
21.48
24.32
27.12
29.18
29.78
28.38
24.82
19.27
12.27
4.57
-3.05
-9.90
-15.59
-20.04
-23.43
-26.09
-28.30
-30.31
-32.29
-34.39
-36.72
-39.29
-41.90
-44.12
-45.30
-44.85
-42.40
-37.90
-31.71
-24.44
-16.86
-9.74
-3.63
1.20
4.80
7.37
9.15
10.25
10.62
10.17
8.93
7.15
5.24
3.64
2.59
2.15
2.32
3.18
5.02
8.06
12.29
17.19
21.75
24.84
25.70
24.22
21.03
17.21
13.77
11.27
9.74
8.83
8.12
7.29
6.23
4.91
3.33
1.44
-0.75
-3.20
-5.75
-8.24
-10.56
-12.55
-13.97
-14.39
-13.35
-10.49
-5.89
-0.21
5.53
10.26
13.33
14.58
14.38
13.24
11.56
9.57
7.36
5.15
3.30
2.27
2.37
3.61
5.62
7.88
9.92
11.49
12.63
13.46
14.07
14.33
13.97
12.68
10.29
6.85
2.61
-2.05
-6.80
-11.40
-15.73
-19.73
-23.44
-26.99
-30.55
-34.43
-38.77
-43.58
-48.48
-52.74
-55.50
-56.01
-53.93
-49.42
-43.10
-35.80
-28.34
-21.30
-14.97
-9.40
-4.44
0.10
4.40
8.45
12.05
14.85
16.49
16.83
16.04
14.74
13.82
14.26
16.87
22.04
29.54
38.50
47.57
55.16
59.95
61.13
58.57
52.85
44.98
36.19
27.62
20.15
14.22
9.83
6.58
3.83
0.97
-2.43
-6.59
-11.63
-17.65
-24.81
-33.19
-42.62
-52.57
-62.04
-69.71
-74.22
-74.55
-70.21
-61.56
-49.68
-36.21
-22.92
-11.31
-2.31
3.80
7.34
8.98
9.47
9.33
8.83
7.85
6.10
3.34
-0.45
-5.02
-9.86
-14.46
-18.48
-21.83
-24.64
-27.24
-30.06
-33.64
-38.41
-44.42
-50.84
-55.65
-55.99
-49.27
-34.46
-13.18
10.50
31.50
45.75
51.91
51.63
48.65
46.94
49.16
56.08
66.67
78.98
90.78
100.19
106.03
108.14
107.56
106.23
106.43
109.90
117.36
128.27
141.14
153.84
164.01
169.43
168.35
160.01
145.00
125.27
103.48
82.23
63.18
46.82
32.68
19.92
7.66
-4.77
-17.88
-32.05
-47.23
-62.88
-77.97
-91.45
-102.67
-111.66
-118.98
-125.17
-130.24
-133.64
-134.73
-133.40
-130.38
-126.96
-124.32
-123.00
-122.84
-123.40
-124.36
-125.46
-126.11
-124.83
-119.42
-107.75
-89.07
-64.72
-37.94
-12.82
7.26
20.64
27.59
29.62
28.59
26.02
22.90
19.82
17.17
15.32
14.53
14.94
16.47
18.94
22.23
26.55
32.38
40.31
50.51
62.37
74.36
84.41
90.59
91.84
88.32
81.18
71.98
61.96
51.60
40.81
29.33
17.35
5.63
-4.72
-12.87
-18.73
-22.98
-26.71
-30.83
-35.54
-40.35
-44.52
-47.68
-50.13
-52.74
-56.40
-61.48
-67.57
-73.67
-78.68
-81.94
-83.45
-83.78
-83.55
-83.09
-82.09
-79.81
-75.41
-68.46
-59.15
-48.18
-36.42
-24.54
-12.97
-2.07
7.64
15.27
19.72
20.11
16.16
8.40
-1.95
-13.42
-24.82
-35.49
-45.32
-54.62
-63.78
-73.07
-82.55
-92.01
-100.80
-107.79
-111.19
-108.81
-98.63
-79.53
-52.04
-18.51
17.50
52.19
82.81
108.32
129.43
147.96
165.79
184.04
202.60
220.38
235.79
247.46
254.67
257.35
256.02
251.49
244.83
237.38
230.54
225.44
222.47
221.03
219.56
216.22
209.50
198.80
184.53
167.76
149.78
131.61
113.83
96.56
79.66
62.98
46.52
30.47
15.01
0.13
-14.41
-28.95
-43.67
-58.29
-72.21
-84.92
-96.41
-107.33
-118.58
-130.67
-143.09
-154.41
-162.90
-167.38
-167.78
-165.02
-160.41
-154.91
-148.87
-142.09
-134.26
-125.37
-115.78
-105.97
-96.34
-87.03
-78.08
-69.55
-61.63
-54.51
-48.25
-42.67
-37.52
-32.63
-28.13
-24.43
-21.93
-20.84
-20.97
-21.89
-23.07
-24.08
-24.66
-24.70
-24.14
-22.97
-21.13
-18.62
-15.56
-12.20
-9.00
-6.45
-4.95
-4.65
-5.39
-6.71
-8.08
-9.18
-10.05
-11.07
-12.73
-15.38
-18.98
-23.02
-26.73
-29.27
-30.05
-28.82
-25.74
-21.19
-15.61
-9.40
-2.88
3.66
9.85
15.37
19.99
23.71
26.69
29.17
31.31
33.02
34.09
34.31
33.69
32.46
31.03
29.66
28.46
27.28
25.91
24.29
22.60
21.25
20.65
21.02
22.23
23.74
24.82
24.75
23.10
19.84
15.37
10.35
5.44
1.09
-2.64
-6.04
-9.59
-13.70
-18.55
-23.93
-29.41
-34.46
-38.63
-41.69
-43.60
-44.53
-44.81
-44.79
-44.92
-45.62
-47.18
-49.64
-52.66
-55.53
-57.34
-57.28
-54.87
-50.17
-43.83
-36.66
-29.47
-22.76
-16.69
-11.16
-6.10
-1.57
2.27
5.27
7.51
9.25
10.81
12.42
14.02
15.39
16.33
16.86
17.23
17.84
18.94
20.46
22.08
23.38
24.07
24.14
23.78
23.21
22.55
21.73
20.61
19.13
17.32
15.30
13.22
11.12
9.01
6.93
4.94
3.21
1.89
0.94
0.16
-0.84
-2.42
-4.72
-7.55
-10.51
-13.18
-15.34
-17.16
-19.11
-21.67
-25.18
-29.62
-34.56
-39.38
-43.34
-45.80
-46.26
-44.46
-40.41
-34.47
-27.23
-19.48
-11.97
-5.18
0.69
5.67
9.96
13.65
16.70
18.97
20.28
20.58
19.98
18.72
17.10
15.44
14.01
13.03
12.66
12.90
13.63
14.58
15.48
16.12
16.49
16.71
16.98
17.41
17.95
18.36
18.32
17.54
15.87
13.38
10.38
7.30
4.56
2.44
0.95
-0.08
-0.97
-1.99
-3.32
-5.04
-7.17
-9.66
-12.47
-15.49
-18.61
-21.69
-24.67
-27.54
-30.38
-33.28
-36.30
-39.46
-42.53
-45.09
-46.46
-45.86
-42.74
-37.07
-29.44
-20.89
-12.53
-5.11
1.14
6.43
11.06
15.17
18.63
21.19
22.68
23.18
22.96
22.33
21.51
20.58
19.61
18.76
18.21
18.15
18.68
19.68
20.82
21.67
21.86
21.19
19.73
17.78
15.78
14.07
12.81
11.82
10.73
9.18
7.04
4.50
2.01
0.04
-1.17
-1.71
-1.95
-2.34
-3.25
-4.84
-7.05
-9.73
-12.60
-15.42
-17.97
-20.08
-21.74
-23.12
-24.55
-26.45
-29.19
-32.87
-37.31
-41.88
-45.70
-47.71
-46.98
-43.03
-35.97
-26.64
-16.37
-6.63
1.51
7.62
11.96
15.28
18.30
21.41
24.48
27.07
28.73
29.30
29.06
28.53
28.26
28.60
29.56
30.98
32.57
34.06
35.19
35.68
35.23
33.64
30.91
27.31
23.32
19.47
16.16
13.48
11.21
8.87
5.88
1.71
-3.92
-10.90
-18.71
-26.58
-33.64
-39.30
-43.40
-46.22
-48.25
-49.96
-51.56
-53.03
-54.33
-55.61
-57.32
-60.08
-64.34
-70.17
-77.14
-84.44
-91.28
-97.04
-101.46
-104.57
-106.49
-107.13
-106.03
-102.18
-94.21
-80.65
-60.41
-33.11
0.47
38.44
78.04
116.19
150.17
178.08
199.10
213.36
221.76
225.56
226.15
224.91
223.04
221.48
220.64
220.19
219.04
215.64
208.50
196.70
180.22
159.78
136.52
111.55
85.72
59.44
32.94
6.62
-18.65
-41.56
-60.55
-74.42
-82.75
-86.12
-86.00
-84.22
-82.50
-82.12
-83.79
-87.75
-93.94
-101.91
-110.94
-120.07
-128.48
-135.91
-142.76
-149.75
-157.30
-164.90
-171.00
-173.67
-171.51
-164.34
-153.47
-141.00
-128.86
-117.94
-107.80
-97.11
-84.48
-69.23
-51.77
-33.42
-15.96
-0.94
10.61
18.50
23.39
26.63
29.94
35.03
43.14
54.66
68.98
84.54
99.25
111.03
118.27
120.24
117.12
109.80
99.63
88.09
76.55
66.03
57.12
49.83
43.76
38.35
33.14
28.02
23.24
19.18
16.03
13.56
11.12
7.87
3.14
-3.24
-10.81
-18.69
-25.90
-31.71
-35.79
-38.29
-39.63
-40.32
-40.90
-41.79
-43.36
-45.86
-49.24
-53.09
-56.57
-58.59
-58.19
-54.92
-48.92
-40.86
-31.66
-22.13
-12.85
-4.28
3.13
8.93
12.79
14.57
14.52
13.03
10.52
7.31
3.67
-0.09
-3.49
-6.04
-7.54
-8.31
-9.20
-11.27
-15.35
-21.54
-29.15
-36.84
-43.05
-46.43
-46.13
-42.03
-34.56
-24.64
-13.34
-1.65
9.62
19.92
28.95
36.72
43.49
49.75
55.98
62.41
68.75
74.30
78.30
80.49
81.48
82.73
85.94
92.20
101.43
112.17
122.14
129.06
131.41
128.84
122.07
112.45
101.49
90.40
79.88
70.08
60.78
51.53
41.83
31.39
20.18
8.40
-3.54
-15.16
-26.02
-35.78
-44.26
-51.44
-57.41
-62.37
-66.57
-70.19
-73.38
-76.17
-78.41
-79.93
-80.48
-79.83
-77.90
-74.84
-70.99
-66.83
-62.79
-59.17
-56.03
-53.28
-50.74
-48.33
-46.04
-43.86
-41.79
-39.68
-37.42
-34.90
-32.15
-29.26
-26.38
-23.60
-20.93
-18.40
-16.08
-14.14
-12.79
-12.23
-12.51
-13.62
-15.39
-17.55
-19.91
-22.37
-24.99
-27.89
-31.12
-34.38
-36.93
-37.72
-35.69
-30.29
-21.72
-10.97
0.53
11.45
20.91
28.70
35.06
40.37
44.86
48.61
51.55
53.59
54.80
55.33
55.44
55.35
55.15
54.80
54.33
53.85
53.51
53.56
54.06
54.90
55.69
55.87
54.90
52.48
48.52
43.18
36.84
29.86
22.59
15.28
8.12
1.26
-5.11
-10.80
-15.59
-19.41
-22.43
-25.05
-27.79
-31.06
-35.04
-39.53
-44.09
-48.19
-51.31
-53.23
-53.93
-53.67
-52.87
-52.10
-51.90
-52.69
-54.60
-57.33
-60.20
-62.24
-62.41
-59.95
-54.53
-46.41
-36.43
-25.68
-15.25
-5.89
2.03
8.50
13.67
17.75
20.86
23.17
24.87
26.26
27.49
28.57
29.29
29.40
28.82
27.83
27.02
26.98
28.09
30.16
32.53
34.34
34.87
33.89
31.72
29.00
26.47
24.67
23.65
23.12
22.60
21.67
20.18
18.30
16.31
14.45
12.70
10.85
8.58
5.67
2.04
-2.14
-6.59
-11.00
-15.05
-18.49
-21.19
-23.22
-24.86
-26.58
-28.81
-31.81
-35.51
-39.58
-43.50
-46.66
-48.46
-48.32
-45.88
-41.09
-34.37
-26.51
-18.51
-11.24
-5.20
-0.45
3.35
6.60
9.62
12.43
14.84
16.57
17.44
17.42
16.71
15.57
14.30
13.11
12.09
11.26
10.60
10.09
9.68
9.25
8.60
7.58
6.06
3.94
1.25
-1.97
-5.51
-9.03
-12.20
-14.81
-17.04
-19.48
-22.93
-27.98
-34.62
-42.03
-48.81
-53.43
-54.72
-52.16
-45.85
-36.38
-24.70
-11.94
0.64
12.03
21.60
29.27
35.30
39.86
42.76
43.39
41.10
35.85
28.66
21.46
16.48
15.25
18.04
23.80
30.78
37.46
43.03
47.45
50.97
53.71
55.47
56.08
55.82
55.50
56.22
58.66
62.64
67.11
70.65
72.18
71.39
68.70
64.68
59.64
53.38
45.47
35.60
23.96
11.12
-2.30
-16.01
-30.21
-45.28
-61.34
-77.85
-93.43
-106.26
-114.75
-118.11
-116.57
-111.23
-103.38
-94.17
-84.27
-74.01
-63.64
-53.49
-44.01
-35.59
-28.50
-22.84
-18.59
-15.77
-14.41
-14.60
-16.42
-19.86
-24.64
-30.27
-35.96
-40.56
-42.78
-41.38
-35.56
-25.23
-11.12
5.37
22.51
38.71
52.86
64.44
73.47
80.23
85.05
88.14
89.56
89.41
87.88
85.33
82.18
78.80
75.32
71.61
67.38
62.39
56.66
50.59
44.88
40.19
36.90
34.93
33.76
32.73
31.29
29.19
26.49
23.39
19.99
16.28
12.16
7.70
3.17
-1.00
-4.44
-7.03
-9.05
-11.07
-13.67
-17.22
-21.74
-26.90
-32.21
-37.15
-41.44
-45.09
-48.47
-52.18
-56.79
-62.57
-69.09
-75.30
-79.73
-81.05
-78.42
-71.73
-61.46
-48.51
-33.93
-18.77
-4.16
8.80
19.23
26.67
31.22
33.38
33.88
33.32
32.11
30.43
28.39
26.15
23.89
21.78
19.94
18.49
17.55
17.23
17.58
18.42
19.40
20.00
19.86
18.87
17.26
15.43
13.79
12.52
11.56
10.69
9.74
8.62
7.44
6.32
5.32
4.40
3.41
2.14
0.51
-1.38
-3.23
-4.66
-5.44
-5.66
-5.74
-6.33
-8.01
-11.06
-15.39
-20.55
-25.88
-30.64
-34.03
-35.36
-34.05
-29.91
-23.34
-15.29
-7.06
0.13
5.55
9.12
11.35
12.94
14.47
16.21
18.06
19.80
21.13
21.81
21.66
20.58
18.69
16.31
14.00
12.35
11.78
12.32
13.61
15.12
16.46
17.46
18.21
18.85
19.35
19.45
18.80
17.16
14.65
11.64
8.60
5.84
3.41
1.12
-1.27
-3.90
-6.79
-9.77
-12.67
-15.28
-17.52
-19.48
-21.47
-24.00
-27.52
-32.39
-38.59
-45.74
-53.14
-59.95
-65.29
-68.36
-68.56
-65.45
-59.06
-49.90
-38.93
-27.39
-16.42
-6.71
1.55
8.60
14.77
20.20
24.78
28.22
30.29
31.09
31.03
30.72
30.64
31.04
31.75
32.47
32.91
32.98
32.87
32.81
32.91
33.13
33.19
32.79
31.67
29.81
27.38
24.69
22.05
19.62
17.43
15.35
13.15
10.65
7.66
4.17
0.26
-3.87
-7.98
-11.92
-15.58
-19.04
-22.47
-26.11
-30.16
-34.70
-39.70
-44.95
-50.07
-54.52
-57.60
-58.55
-56.86
-52.34
-45.34
-36.61
-27.09
-17.65
-8.91
-1.15
5.58
11.28
15.94
19.52
21.97
23.31
23.70
23.45
22.94
22.56
22.63
23.32
24.62
26.39
28.42
30.54
32.66
34.72
36.67
38.36
39.56
40.01
39.48
37.90
35.35
32.12
28.50
24.79
21.16
17.61
14.12
10.63
7.21
4.03
1.24
-1.11
-3.12
-5.06
-7.25
-9.95
-13.26
-17.19
-21.66
-26.45
-31.17
-35.16
-37.54
-37.44
-34.26
-27.95
-19.11
-8.85
1.59
11.19
19.38
26.03
31.29
35.31
38.00
39.14
38.47
35.95
31.92
27.00
21.93
17.37
13.69
10.98
9.18
8.20
8.04
8.80
10.60
13.51
17.47
22.25
27.49
32.63
37.03
40.02
41.16
40.37
38.04
34.80
31.28
27.85
24.50
20.96
16.86
11.88
5.86
-1.18
-9.02
-17.28
-25.48
-33.08
-39.85
-45.97
-52.13
-59.30
-68.20
-78.74
-89.76
-99.28
-105.07
-105.65
-100.80
-91.65
-80.26
-68.71
-58.54
-50.44
-44.28
-39.43
-35.08
-30.41
-24.75
-17.79
-9.75
-1.33
6.39
12.48
16.60
19.07
20.69
22.26
24.11
26.13
27.98
29.36
30.23
30.72
30.85
30.44
29.05
26.22
21.75
15.90
9.37
3.08
-2.11
-5.58
-7.08
-6.78
-5.18
-3.02
-1.14
-0.16
-0.36
-1.70
-3.94
-6.86
-10.45
-14.98
-20.72
-27.73
-35.59
-43.40
-50.05
-54.55
-56.38
-55.58
-52.70
-48.53
-43.90
-39.50
-35.77
-32.85
-30.55
-28.27
-25.17
-20.38
-13.38
-4.33
5.91
16.03
24.74
31.25
35.48
37.89
39.17
39.76
39.79
39.22
38.08
36.64
35.40
34.89
35.45
37.13
39.80
43.14
46.82
50.47
53.67
55.97
56.92
56.18
53.61
49.33
43.68
37.21
30.51
24.12
18.36
13.19
8.25
2.95
-3.23
-10.45
-18.27
-25.68
-31.34
-33.99
-32.94
-28.33
-21.18
-12.98
-5.22
1.14
5.82
9.02
11.07
12.09
11.88
10.11
6.59
1.40
-5.11
-12.46
-20.00
-26.85
-31.79
-33.40
-30.52
-22.83
-11.24
2.32
15.41
25.95
32.88
36.17
36.58
35.04
32.32
28.88
24.99
20.87
16.77
12.97
9.62
6.67
3.92
0.95
-2.68
-7.26
-12.81
-19.01
-25.33
-31.36
-36.92
-42.13
-47.11
-51.65
-55.01
-56.12
-54.00
-48.34
-39.72
-29.52
-19.37
-10.60
-3.88
0.85
4.08
6.40
8.26
9.85
11.25
12.48
13.57
14.62
15.69
16.75
17.68
18.32
18.52
18.32
17.84
17.36
17.08
17.09
17.21
17.13
16.58
15.42
13.83
12.20
10.94
10.27
10.06
9.85
9.12
7.48
4.85
1.52
-2.01
-5.21
-7.83
-9.91
-11.73
-13.76
-16.43
-20.05
-24.69
-30.22
-36.23
-42.05
-46.81
-49.55
-49.57
-46.62
-41.06
-33.70
-25.56
-17.48
-9.95
-3.11
3.11
8.73
13.59
17.47
20.17
21.73
22.42
22.66
22.85
23.25
23.91
24.74
25.59
26.27
26.59
26.37
25.51
24.14
22.78
22.31
23.70
27.53
33.61
40.89
47.82
52.92
55.32
55.05
52.80
49.43
45.57
41.48
37.20
32.80
28.52
24.64
21.21
17.82
13.65
7.93
0.30
-8.85
-18.58
-27.83
-36.08
-43.59
-51.16
-59.56
-68.81
-77.87
-84.95
-88.16
-86.31
-79.30
-68.09
-54.23
-39.24
-24.27
-10.10
2.75
13.75
22.38
28.24
31.31
32.07
31.41
30.33
29.54
29.26
29.27
29.10
28.48
27.45
26.43
25.91
26.11
26.76
27.17
26.55
24.42
20.85
16.46
12.14
8.59
6.15
4.62
3.54
2.36
0.68
-1.65
-4.59
-7.96
-11.57
-15.25
-18.87
-22.28
-25.34
-27.93
-29.98
-31.64
-33.27
-35.43
-38.54
-42.64
-47.08
-50.74
-52.28
-50.71
-45.84
-38.40
-29.80
-21.64
-15.24
-11.21
-9.45
-9.28
-9.82
-10.43
-10.82
-11.15
-11.86
-13.38
-15.94
-19.55
-23.98
-28.84
-33.70
-38.08
-41.59
-44.07
-45.67
-46.82
-48.07
-49.75
-51.66
-53.03
-52.76
-49.97
-44.53
-37.27
-29.89
-24.42
-22.45
-24.52
-29.80
-36.36
-41.98
-44.97
-44.96
-43.19
-42.13
-44.52
-52.24
-65.35
-81.78
-97.69
-108.39
-109.40
-97.63
-72.12
-34.52
11.12
59.02
103.11
138.49
162.69
176.09
181.28
181.78
180.50
178.89
176.87
173.60
168.37
161.16
152.48
142.96
132.98
122.53
111.48
100.01
88.77
78.76
70.91
65.60
62.46
60.54
58.76
56.34
53.14
49.58
46.26
43.47
40.86
37.50
32.35
24.86
15.36
5.02
-4.68
-12.68
-18.72
-23.45
-27.85
-32.74
-38.44
-44.77
-51.40
-58.07
-64.70
-71.36
-78.14
-85.05
-92.03
-99.01
-105.85
-112.20
-117.45
-120.71
-120.99
-117.51
-109.94
-98.62
-84.42
-68.57
-52.31
-36.66
-22.32
-9.55
1.78
12.23
22.47
33.06
44.03
54.81
64.26
71.18
74.80
75.15
72.97
69.42
65.52
61.92
58.82
56.16
53.79
51.56
49.24
46.51
43.05
38.77
33.84
28.69
23.73
19.19
15.02
10.97
6.76
2.29
-2.40
-7.21
-12.09
-17.12
-22.38
-27.83
-33.22
-38.07
-41.94
-44.62
-46.23
-47.22
-48.25
-49.89
-52.50
-56.02
-59.94
-63.38
-65.32
-64.94
-61.95
-56.59
-49.61
-41.95
-34.49
-27.76
-21.96
-17.06
-12.97
-9.64
-7.07
-5.29
-4.25
-3.83
-3.86
-4.18
-4.81
-5.86
-7.45
-9.58
-11.92
-13.86
-14.80
-14.39
-12.75
-10.58
-8.78
-8.15
-9.08
-11.49
-14.94
-18.92
-22.98
-26.81
-30.18
-32.85
-34.53
-34.98
-34.08
-31.84
-28.42
-24.03
-18.79
-12.76
-5.96
1.47
9.13
16.43
22.71
27.52
30.78
33.00
35.06
38.02
42.63
49.08
56.92
65.07
72.18
76.95
78.50
76.64
71.78
64.86
56.92
48.77
40.83
33.01
24.97
16.32
6.89
-3.27
-13.89
-24.47
-34.37
-42.70
-48.41
-50.52
-48.59
-43.02
-35.20
-27.10
-20.66
-17.10
-16.60
-18.40
-21.38
-24.67
-27.93
-31.31
-35.01
-38.90
-42.55
-45.40
-47.24
-48.29
-49.01
-49.63
-49.69
-48.01
-43.05
-33.79
-20.31
-4.10
12.43
26.62
36.56
41.43
41.71
38.80
34.70
31.51
31.01
34.01
40.06
47.53
54.03
57.54
57.28
53.99
49.52
45.65
43.28
42.12
41.35
40.42
39.73
40.30
43.03
47.92
53.82
59.01
62.05
62.42
60.54
57.25
53.23
48.58
43.08
36.59
29.35
22.04
15.38
9.72
5.07
1.19
-2.06
-4.53
-5.91
-6.13
-5.57
-5.01
-5.38
-7.21
-10.50
-14.70
-19.14
-23.37
-27.36
-31.39
-35.81
-40.82
-46.46
-52.64
-59.14
-65.69
-71.91
-77.24
-81.06
-82.71
-81.69
-77.83
-71.30
-62.64
-52.68
-42.40
-32.68
-24.15
-17.01
-11.14
-6.20
-1.92
1.79
4.80
6.94
8.19
8.78
9.10
9.48
10.08
10.81
11.43
11.78
11.87
11.88
12.00
12.33
12.83
13.37
13.82
14.08
14.04
13.57
12.55
10.82
8.38
5.39
2.09
-1.26
-4.56
-7.90
-11.48
-15.42
-19.75
-24.26
-28.61
-32.57
-36.09
-39.36
-42.82
-46.95
-52.09
-58.26
-65.06
-71.71
-77.31
-81.02
-82.31
-81.14
-77.90
-73.17
-67.59
-61.59
-55.43
-49.37
-43.67
-38.68
-34.63
-31.56
-29.18
-27.05
-24.71
-21.78
-17.97
-12.78
-5.61
4.08
16.43
30.86
46.15
60.89
74.11
85.60
95.90
105.76
115.50
124.73
132.46
137.63
139.61
138.68
135.79
132.21
128.94
126.33
123.98
121.03
116.59
110.28
102.50
94.23
86.62
80.40
75.63
71.71
67.75
63.07
57.33
50.55
42.82
34.14
24.45
13.91
3.18
-6.46
-13.36
-15.95
-13.40
-6.00
4.79
16.87
28.11
37.03
43.16
46.92
49.27
51.21
53.44
56.34
60.14
64.99
70.97
77.89
85.26
92.35
98.47
103.22
106.56
108.73
109.91
110.13
109.22
106.84
102.58
95.96
86.48
73.73
57.63
38.65
17.87
-3.33
-23.68
-42.52
-59.85
-76.03
-91.39
-105.91
-119.38
-131.67
-143.12
-154.59
-166.96
-180.60
-194.96
-208.76
-220.49
-229.11
-234.44
-236.92
-237.17
-235.37
-231.09
-223.65
-212.57
-198.00
-180.70
-161.78
-142.21
-122.58
-103.26
-84.54
-66.87
-50.79
-36.77
-24.95
-15.02
-6.33
1.82
9.84
17.63
24.62
29.96
32.95
33.33
31.41
27.96
23.94
20.08
16.62
13.34
9.72
5.25
-0.37
-7.13
-14.81
-23.04
-31.33
-39.01
-45.30
-49.50
-51.13
-50.30
-47.74
-44.77
-42.97
-43.65
-47.53
-54.57
-64.14
-75.55
-88.58
-103.59
-121.07
-140.68
-160.43
-176.51
-184.35
-180.27
-163.00
-134.05
-96.80
-54.81
-10.53
35.06
81.54
128.01
172.42
211.92
243.91
267.03
281.52
288.76
290.49
288.03
282.08
272.98
261.09
247.18
232.41
218.18
205.63
195.21
186.41
177.98
168.49
156.91
143.00
127.13
109.89
91.55
71.95
50.75
27.80
3.45
-21.43
-45.68
-68.15
-87.99
-104.71
-118.14
-128.33
-135.55
-140.26
-143.04
-144.57
-145.37
-145.75
-145.61
-144.38
-141.20
-135.29
-126.39
-115.05
-102.59
-90.55
-80.02
-71.16
-63.16
-54.79
-45.13
-34.08
-22.40
-11.27
-1.61
6.40
13.26
19.66
26.01
32.02
36.79
39.25
38.60
34.63
27.65
18.32
7.42
-4.05
-14.72
-22.83
-26.52
-24.45
-16.38
-3.57
11.51
25.97
37.46
44.76
47.88
47.72
45.39
41.85
37.68
33.30
29.08
25.44
22.68
20.83
19.54
18.20
16.18
13.07
8.88
4.09
-0.60
-4.52
-7.28
-8.96
-10.10
-11.42
-13.62
-17.00
-21.42
-26.30
-30.78
-34.00
-35.32
-34.36
-30.96
-25.14
-17.05
-7.10
4.00
15.20
25.22
32.77
36.84
36.91
32.99
25.61
15.50
3.47
-9.72
-23.37
-36.69
-48.69
-58.25
-64.36
-66.37
-64.32
-58.89
-51.24
-42.53
-33.58
-24.70
-15.74
-6.41
3.51
13.93
24.45
34.43
43.13
49.92
54.36
56.35
56.11
54.12
50.90
46.88
42.34
37.32
31.86
26.05
20.06
14.07
8.19
2.43
-3.30
-9.06
-14.84
-20.53
-26.10
-31.54
-36.98
-42.48
-47.94
-53.04
-57.18
-59.70
-60.02
-57.79
-52.99
-45.98
-37.38
-27.98
-18.57
-9.74
-1.87
4.91
10.65
15.36
19.12
21.93
23.90
25.18
25.99
26.52
26.87
27.03
26.98
26.74
26.47
26.39
26.72
27.52
28.69
29.96
30.97
31.40
31.06
29.89
27.95
25.41
22.49
19.39
16.29
13.30
10.45
7.74
5.13
2.66
0.35
-1.78
-3.75
-5.66
-7.64
-9.78
-12.17
-14.80
-17.63
-20.60
-23.65
-26.63
-29.45
-32.04
-34.48
-37.01
-39.98
-43.62
-47.95
-52.61
-56.85
-59.70
-60.21
-57.71
-52.00
-43.48
-32.99
-21.58
-10.18
0.56
10.29
18.92
26.37
32.56
37.37
40.73
42.63
43.19
42.53
40.80
38.14
34.85
31.43
28.53
26.79
26.61
27.99
30.44
33.16
35.32
36.27
35.75
33.99
31.45
28.71
26.20
24.02
21.94
19.62
16.72
13.24
9.37
5.49
1.90
-1.31
-4.23
-6.89
-9.17
-10.88
-11.88
-12.23
-12.03
-11.25
-9.50
-6.19
-0.90
6.10
13.61
19.84
23.09
22.52
18.65
13.10
7.98
5.08
5.33
8.71
14.48
21.54
28.69
34.79
38.77
39.82
37.40
31.65
23.34
13.93
5.06
-1.90
-6.25
-8.08
-8.09
-7.19
-6.04
-4.92
-3.64
-1.71
1.32
5.82
11.86
19.24
27.47
35.90
43.74
50.16
54.56
56.53
56.00
53.05
47.96
40.91
32.14
21.99
10.91
-0.31
-10.84
-19.85
-26.84
-31.71
-34.79
-36.53
-37.40
-37.71
-37.64
-37.39
-37.23
-37.48
-38.42
-40.18
-42.71
-45.91
-49.76
-54.35
-59.84
-66.22
-73.16
-79.98
-85.67
-89.24
-89.94
-87.34
-81.38
-72.32
-60.65
-47.13
-32.73
-18.54
-5.64
5.23
13.75
20.10
24.73
28.10
30.54
32.19
33.12
33.44
33.32
32.93
32.34
31.56
30.60
29.65
29.05
29.17
30.17
31.87
33.84
35.47
36.21
35.75
34.00
31.07
27.24
22.87
18.35
14.03
10.17
6.90
4.28
2.31
0.96
0.09
-0.59
-1.48
-3.01
-5.38
-8.50
-11.99
-15.39
-18.43
-21.15
-23.82
-26.81
-30.34
-34.37
-38.66
-42.88
-46.89
-50.59
-53.97
-56.78
-58.55
-58.48
-55.91
-50.53
-42.65
-33.19
-23.30
-13.99
-5.85
0.99
6.69
11.38
15.08
17.75
19.35
20.00
19.96
19.54
19.00
18.48
17.98
17.50
17.05
16.73
16.78
17.48
19.10
21.65
24.93
28.43
31.62
34.04
35.50
36.06
35.81
34.84
33.09
30.50
27.05
22.89
18.26
13.47
8.76
4.34
0.33
-3.14
-5.99
-8.22
-9.99
-11.57
-13.26
-15.31
-17.79
-20.63
-23.67
-26.79
-29.91
-33.12
-36.51
-40.16
-44.00
-47.80
-51.05
-53.13
-53.37
-51.26
-46.65
-39.80
-31.30
-21.93
-12.45
-3.48
4.51
11.18
16.30
19.78
21.78
22.65
22.94
23.17
23.62
24.23
24.75
24.83
24.36
23.54
22.79
22.54
22.98
23.99
25.20
26.22
26.84
27.03
26.85
26.34
25.47
24.20
22.52
20.57
18.56
16.65
14.84
13.05
11.18
9.16
7.00
4.71
2.27
-0.38
-3.24
-6.26
-9.23
-12.01
-14.50
-16.79
-19.11
-21.74
-24.81
-28.28
-31.81
-34.86
-36.75
-36.82
-34.56
-29.85
-23.02
-14.86
-6.42
1.31
7.71
12.54
16.01
18.48
20.32
21.70
22.70
23.35
23.73
23.92
24.07
24.22
24.40
24.62
24.89
25.24
25.68
26.15
26.55
26.72
26.45
25.53
23.82
21.22
17.88
14.10
10.23
6.64
3.48
0.73
-1.75
-4.12
-6.51
-8.98
-11.67
-14.78
-18.47
-22.72
-27.21
-31.38
-34.61
-36.52
-37.10
-36.81
-36.34
-36.37
-37.37
-39.53
-42.71
-46.58
-50.57
-53.85
-55.52
-54.71
-50.93
-44.23
-35.31
-25.22
-15.09
-5.83
2.10
8.57
13.67
17.58
20.52
22.69
24.34
25.70
26.89
27.94
28.79
29.38
29.71
29.80
29.70
29.43
28.98
28.32
27.42
26.27
24.86
23.23
21.35
19.25
16.92
14.32
11.44
8.25
4.75
1.01
-2.89
-6.94
-11.18
-15.75
-20.68
-25.86
-30.98
-35.68
-39.66
-42.89
-45.56
-48.03
-50.57
-53.31
-56.16
-58.93
-61.31
-63.02
-63.67
-62.85
-60.14
-55.24
-48.07
-38.80
-27.82
-15.61
-2.64
10.61
23.67
36.01
47.04
56.24
63.30
68.18
71.15
72.56
72.75
71.93
70.22
67.76
64.75
61.57
58.62
56.31
54.81
54.03
53.70
53.40
52.71
51.33
49.18
46.34
43.06
39.64
36.36
33.36
30.61
27.91
25.00
21.63
17.77
13.54
9.31
5.45
2.25
-0.30
-2.43
-4.48
-6.78
-9.53
-12.77
-16.47
-20.61
-25.12
-29.95
-34.99
-40.13
-45.30
-50.58
-56.07
-61.87
-67.80
-73.34
-77.68
-79.87
-79.14
-75.18
-68.20
-59.00
-48.62
-38.13
-28.31
-19.60
-12.17
-5.98
-0.97
3.00
6.07
8.42
10.21
11.54
12.40
12.78
12.75
12.52
12.45
12.88
14.03
15.88
18.25
20.86
23.41
25.67
27.42
28.52
28.84
28.35
27.20
25.53
23.52
21.26
18.81
16.17
13.38
10.47
7.46
4.41
1.32
-1.81
-4.93
-7.97
-10.83
-13.38
-15.55
-17.33
-18.79
-20.12
-21.58
-23.53
-26.31
-30.10
-34.79
-39.87
-44.49
-47.55
-48.06
-45.45
-39.77
-31.72
-22.36
-12.80
-3.84
4.15
11.19
17.41
22.85
27.38
30.73
32.67
33.18
32.53
31.24
29.89
28.91
28.42
28.29
28.19
27.88
27.31
26.64
26.14
26.01
26.24
26.73
27.24
27.59
27.66
27.33
26.45
24.88
22.53
19.48
15.95
12.23
8.63
5.36
2.51
0.01
-2.34
-4.77
-7.54
-10.77
-14.47
-18.40
-22.24
-25.71
-28.74
-31.56
-34.63
-38.40
-43.09
-48.58
-54.29
-59.35
-62.80
-63.77
-61.78
-56.80
-49.24
-39.87
-29.63
-19.44
-9.97
-1.68
5.28
10.91
15.41
18.98
21.82
23.98
25.35
25.77
25.14
23.66
21.80
20.21
19.47
19.86
21.28
23.25
25.20
26.59
27.20
26.99
26.12
24.84
23.48
22.44
22.05
22.58
24.00
26.04
28.20
29.92
30.76
30.59
29.61
28.19
26.74
25.42
24.15
22.69
20.82
18.49
15.77
12.87
9.98
7.21
4.51
1.76
-1.23
-4.59
-8.33
-12.36
-16.42
-20.26
-23.63
-26.45
-28.86
-31.14
-33.68
-36.80
-40.69
-45.26
-50.20
-54.89
-58.55
-60.33
-59.44
-55.46
-48.43
-38.97
-28.17
-17.39
-7.80
-0.10
5.68
10.05
13.80
17.52
21.42
25.28
28.62
31.02
32.31
32.61
32.26
31.63
31.02
30.66
30.65
31.05
31.86
32.98
34.16
35.06
35.32
34.66
33.00
30.47
27.45
24.33
21.47
18.96
16.73
14.56
12.25
9.72
7.08
4.49
2.07
-0.15
-2.27
-4.39
-6.61
-9.00
-11.56
-14.27
-17.16
-20.27
-23.57
-27.01
-30.53
-34.18
-38.06
-42.37
-47.13
-52.10
-56.63
-59.78
-60.57
-58.34
-53.03
-45.16
-35.64
-25.51
-15.67
-6.71
1.03
7.38
12.36
16.09
18.88
21.13
23.26
25.55
28.01
30.38
32.31
33.56
34.14
34.27
34.31
34.57
35.15
35.84
36.34
36.36
35.73
34.52
32.88
31.00
28.91
26.58
23.91
20.84
17.46
13.99
10.70
7.79
5.35
3.27
1.37
-0.55
-2.73
-5.30
-8.33
-11.80
-15.57
-19.41
-23.11
-26.53
-29.68
-32.76
-36.09
-39.96
-44.52
-49.68
-54.95
-59.56
-62.55
-63.02
-60.48
-54.96
-47.10
-37.91
-28.52
-19.79
-12.28
-6.23
-1.67
1.35
2.92
3.16
2.31
0.78
-1.05
-2.90
-4.71
-6.60
-8.89
-11.91
-15.86
-20.74
-26.21
-31.62
-36.28
-39.65
-41.64
-42.59
-43.06
-43.54
-44.09
-44.24
-42.97
-39.10
-31.54
-19.68
-3.56
16.05
37.82
60.09
81.31
100.46
117.31
132.46
146.93
161.68
177.07
192.61
207.04
218.64
225.71
227.07
222.43
212.37
198.12
181.13
162.67
143.55
124.17
104.77
85.62
67.18
49.90
33.92
18.94
4.37
-10.23
-24.68
-38.05
-49.20
-57.48
-63.32
-68.10
-73.35
-79.93
-87.36
-94.16
-98.69
-100.08
-98.67
-95.67
-92.45
-89.73
-87.51
-85.27
-82.49
-79.07
-75.27
-71.59
-68.51
-66.42
-65.61
-66.25
-68.39
-71.79
-75.88
-79.82
-82.70
-83.82
-82.90
-80.18
-76.25
-71.87
-67.71
-64.28
-61.93
-60.86
-61.08
-62.31
-64.09
-65.82
-67.14
-68.06
-68.97
-70.29
-72.05
-73.80
-74.72
-74.04
-71.13
-65.57
-56.87
-44.60
-28.76
-10.17
9.33
27.48
42.51
53.99
62.88
70.81
79.00
87.46
95.09
100.37
102.27
100.82
97.01
92.21
87.63
84.09
81.92
81.20
81.77
83.31
85.22
86.66
86.72
84.90
81.39
77.01
72.96
70.11
68.55
67.47
65.58
61.77
55.64
47.53
38.13
27.98
17.26
5.99
-5.49
-16.36
-25.47
-32.02
-36.04
-38.62
-41.31
-45.30
-50.83
-57.02
-62.44
-65.85
-66.84
-65.97
-64.30
-62.72
-61.38
-59.54
-56.01
-49.74
-40.64
-29.76
-19.24
-11.90
-10.71
-18.24
-35.85
-63.01
-96.69
-131.32
-159.79
-175.14
-172.70
-151.70
-115.61
-71.06
-25.60
14.59
46.24
69.09
84.92
96.18
104.80
111.81
117.56
122.21
126.17
130.16
134.70
139.61
143.61
144.53
140.21
129.53
113.27
94.02
75.26
59.83
48.62
40.29
31.96
20.92
5.99
-11.84
-30.03
-46.00
-58.33
-67.28
-74.27
-80.78
-87.29
-93.09
-96.66
-96.52
-92.04
-83.70
-72.80
-60.97
-49.62
-39.60
-31.18
-24.22
-18.26
-12.80
-7.42
-1.98
3.35
8.08
11.65
13.66
14.15
13.61
12.79
12.36
12.69
13.70
15.10
16.53
17.85
19.09
20.39
21.77
23.06
23.96
24.15
23.45
21.91
19.70
17.04
14.07
10.82
7.36
3.79
0.29
-2.97
-5.95
-8.73
-11.53
-14.51
-17.71
-21.00
-24.13
-26.95
-29.48
-31.90
-34.48
-37.45
-40.93
-44.98
-49.48
-54.14
-58.44
-61.54
-62.49
-60.49
-55.20
-46.94
-36.67
-25.72
-15.36
-6.51
0.56
6.06
10.50
14.44
18.18
21.70
24.81
27.18
28.60
29.09
28.84
28.18
27.48
27.06
27.10
27.67
28.73
30.05
31.33
32.20
32.40
31.83
30.60
28.93
27.09
25.23
23.29
21.14
18.58
15.54
12.02
8.15
4.07
-0.13
-4.35
-8.43
-12.13
-15.23
-17.62
-19.40
-20.95
-22.76
-25.23
-28.57
-32.70
-37.38
-42.33
-47.33
-52.26
-57.05
-61.59
-65.67
-68.87
-70.65
-70.44
-67.78
-62.54
-55.05
-46.11
-36.83
-28.29
-21.36
-16.38
-13.30
-11.68
-11.02
-10.90
-11.03
-11.27
-11.48
-11.44
-10.87
-9.49
-7.08
-3.48
1.54
8.40
17.58
29.43
43.78
59.71
75.64
89.65
100.13
106.26
108.25
107.08
104.09
100.46
96.96
93.88
91.17
88.72
86.42
84.22
82.00
79.55
76.49
72.36
66.77
59.48
50.56
40.36
29.35
17.97
6.57
-4.72
-15.94
-27.25
-38.85
-50.81
-62.96
-74.79
-85.52
-94.23
-100.09
-102.55
-101.45
-97.03
-89.77
-80.40
-69.77
-58.85
-48.59
-39.76
-32.80
-27.63
-23.82
-20.73
-17.87
-14.94
-11.89
-8.81
-5.83
-3.01
-0.40
2.00
4.21
6.30
8.39
10.64
13.16
15.91
18.69
21.21
23.26
24.72
25.60
25.99
25.95
25.52
24.68
23.45
21.89
20.07
18.03
15.82
13.40
10.74
7.84
4.70
1.33
-2.20
-5.75
-9.13
-12.15
-14.78
-17.19
-19.80
-23.09
-27.38
-32.66
-38.54
-44.32
-49.15
-52.19
-52.80
-50.63
-45.70
-38.39
-29.42
-19.70
-10.16
-1.51
5.81
11.62
15.95
18.88
20.61
21.37
21.45
21.16
20.80
20.50
20.30
20.16
20.03
19.93
20.00
20.40
21.27
22.60
24.23
25.89
27.33
28.35
28.88
28.97
28.68
28.08
27.14
25.81
24.00
21.68
18.94
15.96
13.01
10.26
7.75
5.38
2.98
0.42
-2.33
-5.21
-8.10
-10.95
-13.68
-16.22
-18.51
-20.54
-22.41
-24.42
-27.01
-30.59
-35.32
-41.00
-46.97
-52.31
-56.10
-57.62
-56.51
-52.84
-47.04
-39.70
-31.54
-23.22
-15.27
-8.08
-1.87
3.30
7.51
10.87
13.49
15.39
16.51
16.80
16.32
15.34
14.32
13.72
13.84
14.71
16.10
17.65
19.02
19.95
20.37
20.30
19.82
19.12
18.42
17.88
17.58
17.43
17.18
16.52
15.17
13.05
10.19
6.77
3.03
-0.88
-4.77
-8.54
-12.15
-15.67
-19.24
-23.12
-27.44
-32.23
-37.35
-42.47
-47.25
-51.49
-55.22
-58.73
-62.42
-66.63
-71.33
-76.02
-79.73
-81.19
-79.17
-72.85
-62.01
-47.22
-29.56
-10.42
8.77
26.87
43.11
57.11
68.82
78.43
86.16
92.28
96.98
100.46
102.98
104.81
106.25
107.43
108.36
108.91
108.93
108.28
106.88
104.67
101.52
97.13
91.21
83.50
73.97
62.94
50.93
38.56
26.36
14.64
3.52
-6.89
-16.41
-24.78
-31.73
-37.12
-41.11
-44.08
-46.55
-48.92
-51.38
-53.91
-56.36
-58.57
-60.43
-61.86
-62.84
-63.41
-63.68
-63.88
-64.31
-65.28
-66.97
-69.34
-72.12
-74.81
-76.80
-77.41
-76.08
-72.49
-66.67
-59.06
-50.45
-41.78
-33.84
-27.05
-21.43
-16.64
-12.42
-8.80
-6.15
-5.10
-6.12
-9.19
-13.67
-18.39
-22.00
-23.39
-22.00
-17.86
-11.55
-3.92
4.15
11.92
18.85
24.61
28.95
31.69
32.83
32.57
31.35
29.72
28.10
26.65
25.26
23.78
22.14
20.59
19.44
18.92
18.89
18.92
18.51
17.40
15.66
13.55
11.28
8.78
5.72
1.74
-3.37
-9.47
-16.16
-22.86
-28.90
-33.58
-36.26
-36.43
-33.88
-28.83
-21.87
-13.78
-5.31
3.00
10.75
17.60
23.12
26.83
28.39
27.75
25.23
21.43
17.00
12.47
8.21
4.46
1.39
-0.85
-2.15
-2.54
-2.22
-1.46
-0.54
0.43
1.42
2.49
3.65
4.80
5.76
6.39
6.68
6.83
7.27
8.46
10.85
14.67
19.81
25.79
31.87
37.20
41.07
43.16
43.51
42.50
40.62
38.23
35.35
31.65
26.47
19.22
9.63
-1.92
-14.35
-26.10
-35.60
-41.68
-43.87
-42.47
-38.27
-32.26
-25.40
-18.47
-12.06
-6.61
-2.39
0.57
2.38
3.32
3.68
3.66
3.37
2.89
2.36
1.95
1.86
2.23
3.12
4.48
6.14
7.98
9.96
12.05
14.20
16.25
17.92
18.95
19.10
18.37
16.86
14.82
12.47
9.96
7.41
4.87
2.36
-0.13
-2.78
-5.81
-9.40
-13.51
-17.75
-21.53
-24.35
-26.17
-27.56
-29.53
-33.18
-39.17
-47.40
-56.94
-66.26
-73.67
-77.72
-77.54
-72.95
-64.40
-52.88
-39.60
-25.84
-12.67
-0.89
9.05
17.07
23.27
27.91
31.28
33.59
34.99
35.62
35.67
35.41
35.14
35.10
35.39
35.98
36.77
37.68
38.68
39.72
40.60
41.00
40.52
38.88
36.15
32.74
29.24
26.15
23.64
21.49
19.34
16.83
13.86
10.53
7.06
3.56
0.04
-3.61
-7.43
-11.39
-15.39
-19.34
-23.22
-27.17
-31.37
-36.01
-41.18
-46.76
-52.44
-57.72
-61.94
-64.40
-64.55
-62.11
-57.16
-50.16
-41.88
-33.20
-24.95
-17.70
-11.73
-7.04
-3.45
-0.74
1.29
2.79
3.90
4.82
5.89
7.52
10.21
14.40
20.39
28.17
37.39
47.45
57.56
66.99
75.15
81.68
86.48
89.57
91.14
91.44
90.78
89.43
87.56
85.16
82.01
77.75
71.99
64.53
55.41
45.01
33.91
22.74
12.05
2.14
-6.97
-15.51
-23.81
-32.21
-40.92
-49.97
-59.07
-67.60
-74.68
-79.31
-80.68
-78.48
-72.97
-65.02
-55.74
-46.22
-37.25
-29.27
-22.51
-17.06
-13.01
-10.36
-8.94
-8.45
-8.50
-8.82
-9.36
-10.15
-11.14
-12.06
-12.37
-11.54
-9.27
-5.74
-1.49
2.75
6.41
9.17
10.97
11.78
11.53
10.14
7.57
4.02
-0.11
-4.29
-8.00
-10.91
-12.81
-13.65
-13.46
-12.42
-10.89
-9.47
-8.89
-9.89
-12.99
-18.28
-25.40
-33.42
-41.08
-47.00
-50.10
-49.78
-46.18
-39.99
-32.20
-23.81
-15.57
-7.90
-0.75
6.18
13.41
21.44
30.54
40.64
51.27
61.65
70.96
78.73
84.83
89.59
93.49
96.92
100.02
102.63
104.41
104.95
103.87
100.88
95.74
88.33
78.74
67.27
54.55
41.46
28.82
17.30
7.08
-2.03
-10.44
-18.60
-26.74
-34.85
-42.71
-50.09
-56.79
-62.80
-68.21
-73.34
-78.68
-84.83
-92.25
-101.11
-110.86
-120.25
-127.49
-130.72
-128.66
-121.00
-108.54
-92.81
-75.63
-58.61
-42.82
-28.89
-17.12
-7.59
-0.30
4.99
8.67
11.28
13.33
15.21
17.13
19.14
21.33
23.75
26.48
29.52
32.69
35.71
38.17
39.77
40.31
39.84
38.61
37.06
35.66
34.91
35.19
36.62
39.06
42.09
45.14
47.71
49.48
50.40
50.67
50.58
50.28
49.71
48.55
46.24
42.14
35.82
27.23
16.90
5.95
-4.21
-12.24
-17.23
-18.92
-17.76
-14.64
-10.61
-6.52
-2.99
-0.31
1.36
1.90
1.14
-0.96
-4.18
-7.89
-11.13
-12.96
-12.85
-10.99
-8.32
-6.11
-5.42
-6.71
-9.76
-13.90
-18.33
-22.39
-25.61
-27.63
-28.22
-27.28
-24.93
-21.53
-17.64
-13.87
-10.80
-8.88
-8.40
-9.45
-11.96
-15.62
-20.03
-24.72
-29.35
-33.73
-37.90
-42.00
-46.25
-50.79
-55.52
-59.92
-63.07
-63.81
-61.00
-53.99
-42.92
-28.79
-13.15
2.43
16.76
29.33
40.14
49.43
57.24
63.31
67.12
68.28
66.72
62.84
57.33
50.88
44.02
37.04
30.20
23.89
18.72
15.37
14.31
15.67
19.11
24.04
29.74
35.68
41.54
47.28
52.96
58.62
64.15
69.26
73.55
76.44
77.46
76.21
72.48
66.20
57.52
46.73
34.31
20.93
7.31
-5.80
-17.82
-28.51
-37.92
-46.39
-54.30
-62.00
-69.68
-77.29
-84.56
-90.99
-95.94
-98.72
-98.87
-96.26
-91.24
-84.39
-76.24
-67.00
-56.63
-45.04
-32.48
-19.67
-7.69
2.44
10.10
15.25
18.31
19.92
20.67
21.04
21.47
22.35
24.00
26.48
29.48
32.40
34.43
34.90
33.47
30.17
25.45
20.06
14.79
10.32
7.03
4.93
3.74
3.10
2.71
2.57
2.79
3.55
4.79
6.23
7.33
7.54
6.46
4.00
0.31
-4.31
-9.52
-15.07
-20.79
-26.70
-32.84
-39.25
-45.94
-52.67
-59.04
-64.45
-68.22
-69.72
-68.48
-64.25
-57.01
-46.93
-34.34
-19.79
-4.03
11.99
27.30
41.03
52.63
61.92
69.14
74.73
79.10
82.44
84.54
84.90
82.85
77.94
70.07
59.62
47.40
34.44
21.85
10.65
1.63
-4.75
-8.47
-9.95
-9.92
-9.26
-8.75
-8.82
-9.59
-10.98
-12.79
-14.87
-17.01
-19.01
-20.61
-21.59
-21.85
-21.59
-21.17
-21.03
-21.50
-22.70
-24.50
-26.55
-28.40
-29.69
-30.19
-29.86
-28.90
-27.59
-26.13
-24.54
-22.52
-19.60
-15.41
-9.95
-3.57
3.06
9.29
14.74
19.31
23.08
26.10
28.27
29.42
29.51
28.71
27.38
25.93
24.53
23.16
21.64
19.95
18.30
17.11
16.81
17.55
19.09
20.84
22.18
22.68
22.21
20.92
19.05
16.75
14.11
11.14
7.90
4.53
1.20
-2.01
-5.05
-7.88
-10.35
-12.24
-13.35
-13.71
-13.57
-13.40
-13.61
-14.38
-15.66
-17.18
-18.75
-20.32
-22.09
-24.36
-27.35
-31.14
-35.57
-40.18
-44.26
-46.98
-47.59
-45.60
-40.99
-34.26
-26.24
-17.83
-9.86
-2.81
3.09
7.79
11.37
13.97
15.76
16.96
17.77
18.35
18.78
19.05
19.09
18.88
18.39
17.59
16.52
15.21
13.75
12.27
10.94
9.90
9.24
8.92
8.84
8.92
9.08
9.36
9.71
9.99
9.98
9.46
8.29
6.54
4.45
2.35
0.49
-1.03
-2.28
-3.49
-4.89
-6.64
-8.78
-11.24
-13.90
-16.62
-19.29
-21.85
-24.34
-26.89
-29.65
-32.73
-36.06
-39.35
-42.01
-43.29
-42.53
-39.37
-33.95
-26.89
-19.03
-11.24
-4.09
2.15
7.44
11.86
15.44
18.15
20.00
21.13
21.75
22.11
22.35
22.45
22.30
21.89
21.33
20.87
20.79
21.25
22.15
23.17
23.90
24.08
23.72
22.99
22.15
21.32
20.37
19.04
17.15
14.70
11.95
9.31
7.08
5.33
3.84
2.25
0.26
-2.23
-5.10
-8.12
-11.03
-13.66
-16.01
-18.17
-20.35
-22.81
-25.71
-29.09
-32.80
-36.59
-40.21
-43.47
-46.17
-48.04
-48.62
-47.38
-43.89
-38.08
-30.33
-21.42
-12.25
-3.54
4.33
11.38
17.94
24.55
31.90
40.66
51.25
63.55
76.78
89.42
99.58
105.47
105.84
100.42
89.98
76.10
60.79
45.87
32.65
21.69
12.99
6.24
1.16
-2.32
-4.13
-4.33
-3.31
-1.81
-0.75
-0.82
-2.22
-4.57
-7.13
-9.17
-10.31
-10.68
-10.83
-11.66
-14.11
-18.95
-26.51
-36.46
-47.76
-58.81
-67.96
-74.10
-77.24
-78.49
-79.58
-81.98
-86.14
-91.13
-95.12
-96.10
-92.89
-85.46
-74.80
-62.42
-49.65
-37.22
-25.25
-13.45
-1.45
10.93
23.50
35.71
46.65
55.25
60.52
61.94
59.67
54.61
48.20
41.94
36.98
33.84
32.43
32.28
32.79
33.48
34.00
34.01
33.23
31.37
28.26
24.00
19.01
13.86
9.15
5.23
1.99
-1.02
-4.36
-8.41
-13.07
-17.89
-22.21
-25.57
-27.88
-29.49
-30.97
-32.78
-35.11
-37.79
-40.45
-42.68
-44.13
-44.54
-43.67
-41.33
-37.39
-31.88
-25.04
-17.30
-9.19
-1.26
6.07
12.49
17.83
22.00
25.02
27.03
28.33
29.33
30.39
31.72
33.22
34.56
35.34
35.35
34.62
33.47
32.30
31.37
30.71
30.11
29.27
27.94
26.03
23.57
20.68
17.40
13.74
9.73
5.40
0.90
-3.52
-7.52
-10.77
-12.96
-14.04
-14.18
-13.75
-13.18
-12.82
-12.84
-13.27
-14.10
-15.33
-16.99
-18.98
-20.98
-22.49
-23.02
-22.44
-21.21
-20.21
-20.30
-21.78
-24.15
-26.29
-27.03
-25.74
-22.63
-18.64
-14.90
-12.13
-10.43
-9.37
-8.32
-6.88
-4.99
-2.93
-1.12
0.11
0.66
0.66
0.46
0.50
1.24
3.05
6.04
10.05
14.57
18.93
22.42
24.57
25.28
24.81
23.64
22.21
20.67
18.86
16.46
13.31
9.55
5.63
2.07
-0.84
-3.22
-5.48
-8.08
-11.24
-14.85
-18.61
-22.27
-25.80
-29.23
-32.48
-35.14
-36.55
-36.02
-33.21
-28.31
-21.97
-15.10
-8.48
-2.57
2.46
6.70
10.26
13.18
15.48
17.18
18.32
18.99
19.29
19.33
19.22
19.10
19.18
19.67
20.69
22.18
23.85
25.35
26.37
26.84
26.94
26.97
27.12
27.35
27.38
26.84
25.51
23.37
20.65
17.62
14.51
11.40
8.29
5.23
2.27
-0.56
-3.32
-6.26
-9.76
-14.19
-19.74
-26.27
-33.25
-39.88
-45.31
-48.73
-49.65
-47.96
-43.92
-38.11
-31.28
-24.23
-17.64
-11.93
-7.27
-3.56
-0.55
2.02
4.26
6.12
7.41
7.97
7.79
7.08
6.19
5.53
5.39
5.84
6.77
7.94
9.13
10.18
11.07
11.82
12.49
13.12
13.62
13.81
13.41
12.21
10.09
7.17
3.76
0.26
-3.00
-5.89
-8.54
-11.20
-14.03
-16.95
-19.65
-21.73
-23.02
-23.70
-24.32
-25.57
-28.01
-31.68
-36.02
-40.03
-42.59
-42.81
-40.31
-35.29
-28.32
-20.20
-11.67
-3.32
4.48
11.50
17.64
22.98
27.66
31.91
35.86
39.47
42.46
44.43
45.02
44.12
41.95
39.05
36.10
33.64
32.04
31.27
31.10
31.21
31.26
31.06
30.50
29.51
28.03
25.94
23.15
19.69
15.76
11.74
8.08
5.12
2.92
1.28
-0.19
-1.83
-3.80
-5.99
-8.17
-10.09
-11.72
-13.24
-14.91
-17.05
-19.76
-22.98
-26.47
-29.93
-32.94
-35.13
-36.13
-35.69
-33.78
-30.60
-26.48
-21.79
-16.87
-11.88
-6.91
-1.98
2.85
7.47
11.79
15.76
19.35
22.51
25.15
27.09
28.15
28.28
27.53
26.17
24.49
22.76
21.22
19.97
19.07
18.61
18.63
19.11
19.98
20.98
21.78
22.07
21.61
20.25
18.09
15.37
12.47
9.75
7.42
5.49
3.75
1.94
-0.13
-2.50
-5.07
-7.78
-10.62
-13.77
-17.43
-21.77
-26.81
-32.45
-38.52
-44.80
-50.94
-56.35
-60.27
-61.79
-60.24
-55.45
-47.89
-38.58
-28.74
-19.49
-11.50
-4.97
0.27
4.50
7.97
10.79
12.92
14.24
14.64
14.11
12.81
11.03
9.21
7.79
7.09
7.20
7.98
9.10
10.21
11.02
11.39
11.31
10.85
10.16
9.27
8.21
7.02
5.80
4.75
3.98
3.52
3.19
2.67
1.61
-0.17
-2.65
-5.57
-8.56
-11.33
-13.71
-15.70
-17.46
-19.20
-21.18
-23.59
-26.57
-30.06
-33.87
-37.53
-40.36
-41.59
-40.58
-37.00
-31.03
-23.28
-14.62
-5.95
2.09
9.13
15.08
19.97
23.88
26.89
29.09
30.59
31.51
31.93
31.89
31.44
30.67
29.80
29.14
28.93
29.33
30.26
31.38
32.28
32.59
32.14
30.96
29.26
27.21
24.91
22.40
19.65
16.65
13.48
10.23
6.95
3.64
0.32
-2.88
-5.67
-7.69
-8.72
-8.83
-8.41
-8.08
-8.39
-9.66
-11.87
-14.72
-17.94
-21.35
-24.99
-28.99
-33.39
-37.96
-42.18
-45.28
-46.47
-45.19
-41.33
-35.30
-27.89
-20.04
-12.55
-5.94
-0.38
4.15
7.78
10.56
12.56
13.91
14.83
15.62
16.52
17.57
18.55
19.18
19.29
18.93
18.43
18.20
18.58
19.65
21.25
23.02
24.59
25.74
26.36
26.44
26.02
25.10
23.65
21.59
18.88
15.59
11.92
8.21
4.78
1.87
-0.52
-2.61
-4.74
-7.20
-10.07
-13.23
-16.39
-19.25
-21.64
-23.60
-25.39
-27.43
-30.12
-33.73
-38.20
-43.08
-47.54
-50.59
-51.35
-49.32
-44.50
-37.40
-28.83
-19.71
-10.82
-2.77
4.06
9.49
13.55
16.37
18.21
19.30
19.77
19.67
18.97
17.69
15.99
14.20
12.72
11.85
11.77
12.43
13.66
15.18
16.77
18.22
19.37
20.11
20.35
20.07
19.37
18.39
17.32
16.31
15.36
14.40
13.29
11.90
10.23
8.32
6.29
4.19
2.01
-0.29
-2.70
-5.20
-7.73
-10.29
-12.91
-15.72
-18.77
-22.08
-25.53
-29.03
-32.54
-36.05
-39.47
-42.50
-44.55
-44.86
-42.82
-38.25
-31.52
-23.51
-15.20
-7.47
-0.78
4.77
9.36
13.17
16.28
18.67
20.27
21.04
21.10
20.65
19.99
19.38
18.99
18.90
19.08
19.43
19.88
20.38
20.92
21.55
22.30
23.10
23.75
23.93
23.28
21.61
19.01
15.83
12.62
9.79
7.54
5.67
3.84
1.70
-0.81
-3.54
-6.23
-8.66
-10.78
-12.70
-14.61
-16.67
-18.97
-21.61
-24.74
-28.45
-32.81
-37.58
-42.28
-46.10
-48.15
-47.72
-44.41
-38.39
-30.35
-21.30
-12.27
-4.06
2.91
8.55
12.96
16.29
18.67
20.20
21.01
21.29
21.23
20.98
20.64
20.25
19.85
19.52
19.32
19.31
19.48
19.79
20.17
20.58
20.86
20.86
20.34
19.13
17.22
14.76
12.02
9.34
6.94
4.87
3.03
1.21
-0.79
-3.17
-6.01
-9.26
-12.70
-16.04
-18.94
-21.21
-22.86
-24.14
-25.51
-27.42
-30.16
-33.75
-37.83
-41.77
-44.77
-46.07
-45.10
-41.59
-35.65
-27.78
-18.69
-9.29
-0.39
7.42
13.81
18.74
22.39
25.00
26.84
28.04
28.62
28.54
27.78
26.43
24.73
23.04
21.71
20.97
20.84
21.15
21.66
22.20
22.65
22.96
23.10
22.99
22.56
21.76
20.61
19.21
17.65
16.04
14.43
12.89
11.46
10.14
8.80
7.19
5.02
2.05
-1.67
-5.90
-10.19
-14.22
-17.87
-21.32
-24.92
-29.03
-33.88
-39.44
-45.36
-51.05
-55.70
-58.42
-58.48
-55.48
-49.59
-41.39
-31.82
-21.92
-12.63
-4.62
1.73
6.34
9.36
11.15
12.09
12.47
12.55
12.37
12.02
11.54
11.07
10.73
10.66
10.94
11.58
12.58
13.89
15.39
16.89
18.15
18.89
18.97
18.37
17.22
15.80
14.37
13.14
12.12
11.16
9.97
8.28
5.97
3.12
0.04
-2.98
-5.69
-8.03
-10.12
-12.17
-14.42
-17.11
-20.43
-24.53
-29.46
-35.09
-40.96
-46.31
-50.16
-51.56
-49.94
-45.31
-38.25
-29.78
-20.94
-12.57
-5.13
1.30
6.79
11.41
15.18
18.05
20.01
21.17
21.70
21.83
21.79
21.81
22.08
22.70
23.69
24.96
26.48
28.16
29.97
31.77
33.29
34.14
33.94
32.51
30.00
26.85
23.51
20.31
17.27
14.19
10.89
7.31
3.60
-0.01
-3.34
-6.34
-9.12
-11.86
-14.75
-17.98
-21.72
-26.18
-31.46
-37.43
-43.64
-49.29
-53.34
-54.87
-53.31
-48.67
-41.53
-32.82
-23.55
-14.51
-6.11
1.55
8.51
14.80
20.28
24.78
28.16
30.42
31.71
32.34
32.57
32.55
32.37
32.06
31.69
31.35
31.13
31.01
30.91
30.67
30.11
29.11
27.67
25.84
23.67
21.23
18.56
15.73
12.80
9.88
7.06
4.30
1.46
-1.60
-5.00
-8.67
-12.40
-15.98
-19.21
-22.09
-24.85
-27.83
-31.37
-35.71
-40.84
-46.47
-52.04
-56.74
-59.68
-60.06
-57.38
-51.70
-43.59
-34.01
-23.94
-14.22
-5.33
2.56
9.45
15.42
20.51
24.73
28.02
30.34
31.65
31.98
31.50
30.52
29.49
28.86
28.88
29.57
30.74
32.09
33.43
34.69
35.86
36.84
37.41
37.20
35.95
33.60
30.37
26.72
23.08
19.69
16.50
13.27
9.71
5.69
1.33
-3.05
-7.02
-10.26
-12.71
-14.66
-16.60
-19.07
-22.40
-26.64
-31.64
-37.10
-42.65
-47.88
-52.14
-54.66
-54.58
-51.33
-44.89
-35.95
-25.70
-15.40
-5.95
2.32
9.50
15.81
21.31
25.85
29.16
31.11
31.86
31.80
31.35
30.85
30.38
29.95
29.59
29.40
29.59
30.25
31.28
32.39
33.20
33.44
33.01
31.99
30.53
28.77
26.76
24.44
21.76
18.74
15.49
12.20
9.06
6.19
3.55
1.05
-1.49
-4.21
-7.18
-10.35
-13.59
-16.75
-19.67
-22.32
-24.78
-27.31
-30.17
-33.65
-37.79
-42.34
-46.73
-50.09
-51.57
-50.49
-46.60
-40.18
-31.96
-22.88
-13.88
-5.61
1.63
7.83
13.10
17.46
20.87
23.20
24.42
24.66
24.20
23.41
22.57
21.91
21.49
21.38
21.58
22.11
22.98
24.05
25.14
26.07
26.68
26.92
26.80
26.33
25.48
24.19
22.40
20.13
17.51
14.74
11.99
9.33
6.78
4.22
1.52
-1.43
-4.67
-8.20
-11.89
-15.59
-19.17
-22.58
-25.94
-29.43
-33.30
-37.66
-42.42
-47.18
-51.28
-53.88
-54.22
-51.83
-46.70
-39.34
-30.64
-21.51
-12.74
-4.76
2.28
8.34
13.40
17.32
19.98
21.32
21.37
20.32
18.42
15.98
13.29
10.66
8.32
6.44
5.02
3.98
3.14
2.37
1.61
0.77
-0.24
-1.66
-3.87
-7.19
-11.75
-17.37
-23.59
-29.85
-35.77
-41.22
-46.33
-51.19
-55.58
-58.95
-60.47
-59.22
-54.37
-45.33
-31.86
-14.19
6.68
28.96
50.11
67.35
78.38
82.13
79.07
71.20
61.31
52.03
44.96
40.33
37.19
34.25
30.67
26.46
22.34
19.18
17.19
15.67
13.26
8.64
1.32
-8.02
-17.89
-26.54
-32.74
-35.92
-36.07
-33.25
-27.55
-19.02
-7.99
4.62
17.43
28.99
38.23
44.78
48.97
51.38
52.55
52.78
52.09
50.56
48.35
45.78
43.06
40.31
37.43
34.34
31.03
27.64
24.41
21.48
18.85
16.31
13.56
10.37
6.63
2.36
-2.32
-7.28
-12.34
-17.24
-21.67
-25.30
-27.90
-29.45
-30.23
-30.73
-31.47
-32.86
-35.05
-37.84
-40.77
-43.19
-44.39
-43.72
-40.76
-35.47
-28.25
-19.85
-11.18
-3.11
3.76
9.21
13.31
16.34
18.50
19.94
20.58
20.33
19.12
17.12
14.69
12.30
10.42
9.30
8.96
9.23
9.84
10.57
11.24
11.68
11.74
11.29
10.29
8.81
7.07
5.28
3.52
1.71
-0.26
-2.42
-4.63
-6.65
-8.33
-9.72
-11.09
-12.83
-15.11
-17.78
-20.38
-22.45
-23.89
-25.17
-27.09
-30.46
-35.55
-41.80
-48.17
-53.56
-57.46
-60.35
-63.43
-68.04
-74.89
-83.72
-93.40
-102.53
-109.98
-115.17
-117.88
-117.83
-114.51
-107.42
-96.74
-83.77
-70.81
-60.33
-53.65
-50.28
-48.08
-44.65
-38.74
-30.96
-23.14
-16.81
-11.62
-5.12
6.06
24.19
48.84
76.81
103.68
125.90
142.21
153.70
162.59
170.57
177.96
183.65
186.04
184.06
177.58
167.53
155.43
142.89
131.20
121.06
112.58
105.37
98.83
92.39
85.72
78.64
70.98
62.29
51.92
39.33
24.48
8.08
-8.55
-23.96
-37.23
-48.33
-58.06
-67.51
-77.42
-87.60
-96.95
-103.87
-107.09
-106.24
-102.07
-96.07
-89.70
-83.74
-78.08
-71.93
-64.39
-55.07
-44.16
-32.24
-19.89
-7.38
5.26
17.88
30.03
40.80
49.08
54.09
55.61
54.17
50.73
46.37
41.92
37.83
34.03
30.09
25.45
19.74
13.11
6.33
0.53
-3.32
-4.97
-5.08
-5.02
-6.07
-8.86
-12.94
-17.18
-20.46
-22.31
-23.15
-23.90
-25.28
-27.35
-29.50
-30.91
-31.10
-30.33
-29.41
-29.34
-30.75
-33.66
-37.65
-42.06
-46.34
-50.05
-52.77
-54.02
-53.31
-50.33
-45.19
-38.49
-31.14
-24.07
-17.86
-12.61
-8.05
-3.84
0.19
3.90
6.95
9.05
10.16
10.54
10.58
10.61
10.77
10.97
11.07
11.11
11.31
12.06
13.69
16.21
19.20
21.97
23.76
24.16
23.17
21.27
19.06
17.02
15.36
13.91
12.40
10.60
8.51
6.33
4.35
2.73
1.37
0.01
-1.74
-4.19
-7.39
-11.06
-14.74
-17.91
-20.25
-21.81
-23.03
-24.61
-27.21
-31.24
-36.65
-42.92
-49.12
-54.18
-57.10
-57.19
-54.26
-48.49
-40.51
-31.12
-21.19
-11.54
-2.84
4.43
10.03
13.99
16.54
18.05
18.81
19.01
18.71
17.91
16.65
15.10
13.49
12.01
10.82
9.99
9.58
9.66
10.29
11.44
12.99
14.67
16.12
17.06
17.27
16.73
15.55
13.97
12.24
10.60
9.16
7.90
6.67
5.32
3.73
1.84
-0.32
-2.71
-5.31
-8.08
-10.92
-13.63
-16.05
-18.10
-19.91
-21.75
-23.97
-26.84
-30.41
-34.44
-38.36
-41.33
-42.38
-40.65
-35.74
-27.94
-18.12
-7.60
2.40
11.06
18.11
23.65
27.89
30.87
32.47
32.58
31.31
29.02
26.22
23.40
20.82
18.59
16.70
15.18
14.02
13.19
12.55
11.94
11.20
10.28
9.24
8.12
6.87
5.35
3.47
1.27
-1.01
-3.05
-4.58
-5.58
-6.28
-7.09
-8.42
-10.52
-13.39
-16.80
-20.36
-23.69
-26.54
-28.90
-31.07
-33.45
-36.37
-39.97
-44.07
-48.27
-51.97
-54.45
-55.01
-53.03
-48.21
-40.71
-31.28
-21.04
-11.12
-2.36
4.97
11.05
16.22
20.63
24.22
26.76
28.11
28.40
27.98
27.28
26.65
26.23
26.09
26.24
26.71
27.56
28.81
30.39
32.17
33.92
35.44
36.47
36.72
35.87
33.71
30.27
25.91
21.24
16.88
13.24
10.28
7.59
4.65
1.09
-3.04
-7.41
-11.54
-15.08
-18.00
-20.56
-23.12
-26.04
-29.56
-33.83
-38.86
-44.48
-50.21
-55.22
-58.49
-59.04
-56.32
-50.46
-42.14
-32.44
-22.40
-12.74
-3.77
4.50
12.06
18.83
24.54
28.91
31.80
33.36
33.91
33.85
33.51
33.06
32.56
32.06
31.66
31.48
31.62
32.11
32.85
33.77
34.81
35.95
37.19
38.37
39.14
39.02
37.64
34.85
30.87
26.21
21.41
16.94
12.98
9.53
6.43
3.41
0.24
-3.35
-7.44
-11.97
-16.67
-21.12
-25.05
-28.37
-31.39
-34.56
-38.29
-42.73
-47.70
-52.64
-56.82
-59.35
-59.39
-56.33
-49.94
-40.61
-29.21
-17.05
-5.45
4.60
12.65
18.77
23.35
26.88
29.68
31.85
33.38
34.20
34.36
33.99
33.42
32.90
32.69
32.89
33.48
34.39
35.55
36.87
38.25
39.52
40.45
40.79
40.33
39.03
37.03
34.57
31.96
29.37
26.86
24.31
21.59
18.64
15.46
12.18
8.90
5.64
2.30
-1.22
-5.00
-8.87
-12.58
-15.87
-18.65
-21.05
-23.40
-26.05
-29.30
-33.29
-37.96
-43.02
-47.95
-51.94
-53.98
-53.13
-48.81
-41.18
-31.08
-19.91
-9.12
0.23
7.67
13.31
17.56
20.90
23.62
25.84
27.57
28.70
29.17
28.91
27.92
26.23
23.98
21.41
18.86
16.77
15.50
15.33
16.32
18.30
20.88
23.57
25.86
27.41
28.05
27.78
26.75
25.09
22.93
20.38
17.57
14.63
11.70
8.86
6.03
3.06
-0.31
-4.28
-8.86
-13.90
-19.14
-24.29
-29.21
-33.88
-38.40
-42.87
-47.31
-51.46
-54.85
-56.81
-56.63
-53.79
-48.20
-40.23
-30.65
-20.40
-10.31
-0.99
7.19
14.04
19.44
23.33
25.77
26.98
27.28
27.04
26.54
26.00
25.51
25.16
25.03
25.14
25.47
25.94
26.48
27.05
27.62
28.16
28.55
28.63
28.17
27.04
25.23
22.89
20.21
17.39
14.53
11.69
8.87
6.07
3.29
0.46
-2.49
-5.69
-9.20
-13.01
-16.94
-20.75
-24.17
-27.07
-29.53
-31.87
-34.48
-37.79
-41.96
-46.83
-51.85
-56.12
-58.64
-58.52
-55.33
-49.14
-40.58
-30.65
-20.38
-10.60
-1.84
5.78
12.30
17.88
22.63
26.61
29.81
32.23
33.81
34.54
34.49
33.83
32.83
31.82
31.10
30.84
31.04
31.56
32.17
32.64
32.83
32.61
31.94
30.79
29.24
27.38
25.31
23.12
20.85
18.54
16.15
13.72
11.25
8.75
6.22
3.61
0.87
-2.04
-5.11
-8.31
-11.58
-14.92
-18.36
-21.97
-25.86
-30.09
-34.62
-39.36
-44.16
-48.82
-53.07
-56.47
-58.39
-58.14
-55.17
-49.34
-41.14
-31.49
-21.48
-12.07
-3.77
3.34
9.39
14.56
18.87
22.23
24.53
25.77
26.07
25.70
24.98
24.17
23.49
23.01
22.73
22.69
22.90
23.38
24.16
25.18
26.20
26.94
27.11
26.58
25.41
23.85
22.14
20.41
18.64
16.69
14.49
12.08
9.59
7.14
4.79
2.48
0.16
-2.24
-4.71
-7.20
-9.68
-12.18
-14.73
-17.37
-20.15
-23.07
-26.19
-29.63
-33.48
-37.80
-42.42
-46.84
-50.31
-51.89
-50.80
-46.71
-39.88
-31.17
-21.72
-12.58
-4.43
2.53
8.33
13.07
16.77
19.36
20.90
21.52
21.47
21.03
20.37
19.59
18.80
18.18
17.89
18.08
18.70
19.58
20.48
21.26
21.91
22.50
23.07
23.54
23.77
23.58
22.85
21.62
19.97
17.97
15.74
13.35
10.86
8.42
6.15
4.12
2.30
0.56
-1.22
-3.09
-4.96
-6.73
-8.31
-9.77
-11.31
-13.17
-15.51
-18.32
-21.40
-24.42
-26.90
-28.23
-27.72
-24.72
-18.85
-10.23
0.46
12.09
23.38
33.28
41.15
46.70
49.69
49.66
46.05
38.49
27.27
13.52
-1.16
-15.22
-27.75
-38.54
-47.64
-55.04
-60.31
-62.96
-62.81
-60.35
-56.61
-52.63
-48.92
-45.16
-40.46
-33.95
-25.31
-15.01
-4.17
5.87
14.10
20.01
23.72
25.71
26.50
26.39
25.38
23.30
20.10
15.96
11.32
6.64
2.24
-1.84
-5.80
-9.91
-14.41
-19.35
-24.70
-30.28
-35.79
-40.80
-44.72
-46.86
-46.67
-43.85
-38.51
-31.25
-22.95
-14.52
-6.72
-0.04
5.38
9.59
12.73
15.02
16.64
17.77
18.55
18.99
19.10
18.83
18.23
17.38
16.47
15.70
15.29
15.42
16.12
17.34
18.84
20.33
21.56
22.50
23.26
24.04
25.03
26.19
27.28
27.97
27.93
26.94
25.01
22.29
19.00
15.39
11.63
7.83
4.09
0.48
-2.93
-6.12
-9.16
-12.28
-15.76
-19.81
-24.46
-29.48
-34.55
-39.36
-43.78
-47.74
-51.08
-53.41
-54.10
-52.49
-48.26
-41.65
-33.44
-24.66
-16.23
-8.70
-2.20
3.36
8.12
12.11
15.29
17.57
18.91
19.39
19.19
18.57
17.81
17.20
16.90
16.96
17.33
17.90
18.57
19.37
20.33
21.47
22.70
23.80
24.55
24.76
24.40
23.53
22.28
20.79
19.12
17.32
15.45
13.60
11.82
10.01
7.97
5.42
2.19
-1.66
-5.83
-9.92
-13.56
-16.52
-18.83
-20.68
-22.38
-24.25
-26.58
-29.56
-33.26
-37.48
-41.77
-45.44
-47.71
-47.89
-45.64
-40.99
-34.42
-26.66
-18.52
-10.66
-3.55
2.59
7.73
11.83
14.92
17.09
18.47
19.24
19.57
19.49
19.03
18.23
17.27
16.48
16.22
16.70
17.84
19.31
20.70
21.70
22.23
22.34
22.14
21.58
20.56
18.95
16.79
14.27
11.68
9.28
7.15
5.21
3.26
1.10
-1.39
-4.20
-7.25
-10.36
-13.36
-16.15
-18.72
-21.18
-23.73
-26.64
-30.12
-34.22
-38.77
-43.31
-47.14
-49.44
-49.54
-47.03
-42.01
-35.00
-26.77
-18.16
-9.84
-2.24
4.42
10.04
14.63
18.19
20.78
22.51
23.47
23.77
23.54
22.93
22.14
21.39
20.85
20.58
20.56
20.67
20.86
21.10
21.47
21.98
22.54
22.89
22.74
21.87
20.27
18.17
15.88
13.69
11.70
9.82
7.87
5.67
3.21
0.48
-2.44
-5.56
-8.89
-12.42
-16.06
-19.59
-22.79
-25.50
-27.82
-30.03
-32.55
-35.78
-39.79
-44.31
-48.67
-51.98
-53.38
-52.32
-48.64
-42.60
-34.77
-25.94
-16.86
-8.26
-0.71
5.41
9.99
13.19
15.39
17.00
18.42
19.81
21.21
22.50
23.61
24.51
25.33
26.21
27.25
28.48
29.80
31.04
32.03
32.65
32.87
32.71
32.23
31.46
30.34
28.77
26.69
24.15
21.29
18.28
15.18
11.96
8.51
4.77
0.86
-3.06
-6.87
-10.56
-14.23
-17.98
-21.74
-25.33
-28.52
-31.29
-33.88
-36.62
-39.82
-43.58
-47.67
-51.73
-55.26
-57.71
-58.50
-57.12
-53.24
-46.91
-38.67
-29.38
-19.97
-11.21
-3.44
3.28
9.05
13.90
17.79
20.62
22.40
23.29
23.56
23.54
23.47
23.49
23.61
23.75
23.82
23.85
23.91
24.17
24.75
25.63
26.60
27.30
27.32
26.42
24.62
22.20
19.51
16.86
14.31
11.67
8.71
5.29
1.51
-2.30
-5.82
-8.93
-11.93
-15.40
-19.99
-25.93
-32.92
-40.10
-46.49
-51.42
-54.96
-57.94
-61.60
-67.09
-74.89
-84.57
-94.90
-104.18
-110.80
-113.75
-112.97
-109.44
-104.85
-101.25
-100.32
-102.91
-108.61
-115.69
-121.35
-122.27
-115.52
-99.47
-74.49
-43.12
-9.41
22.30
48.76
68.64
82.47
91.81
98.28
102.98
106.74
110.54
115.83
124.17
136.43
152.03
168.89
184.02
194.72
199.64
199.03
194.46
187.99
181.16
174.42
166.86
156.62
141.67
120.86
94.68
65.45
36.61
11.46
-8.02
-21.59
-30.29
-35.40
-37.69
-37.12
-33.38
-26.51
-17.25
-6.71
4.30
15.71
28.09
42.08
57.76
74.38
90.63
105.00
116.32
123.89
127.38
126.79
122.41
114.78
104.55
92.21
77.96
61.70
43.40
23.47
2.90
-16.92
-34.69
-49.70
-62.01
-72.25
-81.37
-90.19
-99.25
-108.73
-118.42
-127.79
-136.11
-142.67
-146.97
-149.00
-149.22
-148.35
-147.19
-146.32
-146.13
-146.68
-147.74
-148.75
-148.77
-146.69
-141.57
-133.08
-121.82
-109.25
-97.24
-87.37
-80.30
-75.56
-71.95
-68.19
-63.70
-58.79
-54.52
-51.99
-51.70
-53.14
-55.00
-55.74
-54.40
-50.94
-46.14
-41.13
-36.77
-33.29
-30.50
-28.13
-26.10
-24.40
-22.54
-19.21
-12.42
-0.26
18.01
41.38
67.38
93.02
116.03
135.34
150.89
162.75
170.67
174.06
172.71
167.44
160.03
152.62
146.67
142.26
138.39
133.60
126.82
117.77
106.88
94.89
82.42
69.92
57.68
45.98
35.07
25.07
15.87
7.08
-1.82
-11.21
-21.13
-31.31
-41.28
-50.71
-59.49
-67.81
-75.95
-84.05
-91.90
-98.77
-103.54
-105.03
-102.36
-95.28
-84.32
-70.64
-55.73
-41.03
-27.62
-16.07
-6.49
1.33
7.73
13.15
17.96
22.39
26.46
29.92
32.33
33.32
32.86
31.39
29.75
28.83
29.26
31.12
33.98
37.07
39.64
41.19
41.56
40.90
39.44
37.36
34.79
31.81
28.58
25.34
22.41
20.05
18.37
17.25
16.31
15.01
12.83
9.44
4.85
-0.56
-6.27
-11.79
-16.84
-21.49
-25.99
-30.60
-35.43
-40.47
-45.67
-50.98
-56.22
-60.90
-64.19
-64.97
-62.32
-55.95
-46.43
-35.09
-23.59
-13.36
-5.21
0.69
4.67
7.27
8.99
10.15
10.93
11.39
11.58
11.61
11.67
12.06
13.09
15.01
17.90
21.64
25.87
30.14
33.98
37.00
38.98
39.80
39.46
37.98
35.44
31.91
27.58
22.74
17.77
13.01
8.72
4.85
1.09
-2.94
-7.54
-12.76
-18.30
-23.74
-28.68
-32.87
-36.13
-38.16
-38.47
-36.53
-32.14
-25.72
-18.49
-12.08
-7.98
-6.86
-8.24
-10.76
-12.75
-13.00
-11.15
-7.63
-3.24
1.42
6.24
11.45
17.30
23.68
29.95
35.24
38.71
40.07
39.64
38.35
37.27
37.23
38.44
40.40
42.07
42.27
40.12
35.38
28.55
20.59
12.67
5.68
0.11
-3.94
-6.64
-8.24
-9.02
-9.30
-9.44
-9.74
-10.35
-11.22
-12.04
-12.52
-12.56
-12.22
-11.82
-11.60
-11.55
-11.46
-10.94
-9.64
-7.49
-4.63
-1.45
1.70
4.52
6.82
8.38
8.97
8.31
6.21
2.69
-2.06
-7.56
-13.15
-18.07
-21.53
-22.82
-21.51
-17.58
-11.43
-3.84
4.26
12.04
18.91
24.41
28.24
30.12
29.87
27.60
23.83
19.39
15.15
11.70
9.03
6.67
3.97
0.49
-3.71
-8.15
-12.16
-15.20
-17.04
-17.77
-17.73
-17.36
-17.07
-17.22
-18.06
-19.72
-22.14
-25.09
-28.13
-30.71
-32.33
-32.73
-32.03
-30.81
-29.87
-29.99
-31.60
-34.60
-38.57
-43.10
-48.01
-53.42
-59.56
-66.43
-73.69
-80.83
-87.45
-93.54
-99.60
-106.35
-114.44
-124.16
-135.26
-147.06
-158.53
-168.50
-175.84
-179.87
-180.68
-179.28
-177.36
-176.53
-177.25
-178.13
-175.84
-166.12
-145.17
-111.01
-64.24
-7.79
53.92
116.11
174.61
226.49
270.29
305.84
333.93
355.78
372.33
383.67
388.77
385.71
372.66
349.05
316.56
279.19
242.24
210.60
187.00
171.18
160.40
150.88
139.71
125.89
110.30
94.57
79.91
66.28
52.49
36.95
18.68
-2.04
-23.75
-44.35
-62.05
-76.08
-86.93
-95.96
-104.69
-113.87
-123.16
-131.22
-136.43
-137.72
-134.97
-128.96
-120.82
-111.37
-100.81
-88.92
-75.51
-60.93
-46.13
-32.50
-21.23
-12.89
-7.28
-3.59
-0.92
1.40
3.65
5.85
7.87
9.64
11.22
12.73
14.35
16.28
18.66
21.44
24.29
26.53
27.30
25.84
21.81
15.51
7.80
-0.23
-7.71
-14.23
-19.89
-25.06
-30.10
-35.33
-40.91
-46.99
-53.75
-61.30
-69.54
-78.11
-86.58
-94.75
-102.87
-111.55
-121.26
-131.78
-141.84
-149.30
-151.83
-147.72
-136.49
-118.86
-96.41
-71.06
-44.67
-19.00
4.39
24.20
39.62
50.48
57.28
60.92
62.32
62.16
60.81
58.50
55.54
52.40
49.61
47.68
46.90
47.32
48.88
51.46
54.86
58.80
62.92
66.74
69.85
71.84
72.40
71.36
68.68
64.50
59.17
53.19
47.09
41.26
35.81
30.59
25.24
19.40
12.80
5.43
-2.57
-10.82
-18.88
-26.26
-32.57
-37.62
-41.56
-44.83
-48.08
-51.93
-56.69
-62.16
-67.62
-72.00
-74.15
-73.22
-68.88
-61.37
-51.44
-40.07
-28.15
-16.38
-5.18
5.26
14.86
23.68
31.82
39.43
46.65
53.39
59.17
63.26
64.89
63.60
59.68
54.17
48.69
44.90
43.95
46.08
50.64
56.39
62.03
66.66
69.91
71.89
72.88
73.02
72.17
70.04
66.30
60.86
53.88
45.69
36.60
26.71
15.90
4.08
-8.63
-21.67
-34.08
-44.77
-52.95
-58.42
-61.76
-64.20
-67.13
-71.63
-77.99
-85.62
-93.22
-99.29
-102.50
-102.13
-98.13
-91.00
-81.62
-70.89
-59.67
-48.65
-38.39
-29.22
-21.26
-14.42
-8.46
-3.18
1.51
5.48
8.47
10.13
10.33
9.19
7.25
5.39
4.61
5.76
9.30
15.07
22.33
29.96
36.77
41.90
44.97
46.13
45.87
44.85
43.64
42.66
42.10
41.96
42.01
41.86
40.95
38.71
34.72
28.89
21.50
13.22
4.90
-2.68
-8.97
-13.89
-17.78
-21.21
-24.90
-29.38
-34.90
-41.25
-47.72
-53.24
-56.60
-56.81
-53.37
-46.50
-37.06
-26.27
-15.40
-5.40
3.23
10.33
15.88
19.86
22.23
23.07
22.62
21.35
19.87
18.67
17.98
17.73
17.69
17.64
17.60
17.79
18.52
19.90
21.76
23.63
24.89
25.06
24.00
21.93
19.40
16.93
14.88
13.26
11.84
10.27
8.28
5.79
2.84
-0.50
-4.23
-8.39
-12.97
-17.79
-22.47
-26.62
-29.98
-32.62
-34.94
-37.52
-40.93
-45.36
-50.60
-56.02
-60.72
-63.81
-64.58
-62.69
-58.19
-51.50
-43.24
-34.18
-25.10
-16.64
-9.21
-2.95
2.20
6.46
9.96
12.76
14.83
16.05
16.40
15.93
14.85
13.37
11.68
9.85
7.92
5.87
3.82
2.05
0.85
0.45
0.75
1.32
1.46
0.47
-2.02
-5.91
-10.57
-15.14
-18.75
-20.74
-20.85
-19.17
-16.15
-12.41
-8.66
-5.54
-3.43
-2.39
-2.17
-2.31
-2.40
-2.27
-2.03
-2.09
-2.98
-5.14
-8.83
-13.92
-20.00
-26.36
-32.15
-36.47
-38.58
-37.90
-34.19
-27.55
-18.57
-8.18
2.47
12.23
20.28
26.24
30.27
32.88
34.66
36.04
37.24
38.28
39.10
39.74
40.34
41.08
42.07
43.24
44.45
45.57
46.58
47.61
48.82
50.26
51.79
53.09
53.80
53.59
52.30
49.90
46.58
42.66
38.55
34.63
31.12
27.98
24.95
21.71
18.01
13.88
9.59
5.47
1.75
-1.57
-4.65
-7.75
-10.94
-14.21
-17.40
-20.40
-23.26
-26.11
-29.14
-32.45
-36.07
-39.93
-43.81
-47.38
-50.05
-51.07
-49.73
-45.60
-38.76
-29.82
-19.77
-9.69
-0.46
7.39
13.66
18.43
21.97
24.51
26.29
27.42
27.92
27.74
26.91
25.54
23.91
22.43
21.48
21.34
22.06
23.43
25.03
26.37
27.04
26.88
25.99
24.78
23.68
22.94
22.41
21.44
19.05
14.11
5.69
-6.53
-21.96
-38.93
-54.88
-66.94
-72.78
-71.41
-63.60
-51.52
-37.96
-25.30
-14.92
-7.16
-1.80
1.37
2.22
0.51
-3.74
-9.85
-16.50
-22.07
-25.17
-24.99
-21.46
-15.08
-6.76
2.53
11.97
20.93
29.16
36.56
43.05
48.43
52.35
54.51
54.80
53.52
51.21
48.53
45.93
43.59
41.44
39.37
37.40
35.70
34.45
33.71
33.36
33.07
32.42
30.97
28.40
24.55
19.46
13.40
6.70
-0.29
-7.37
-14.51
-21.82
-29.49
-37.64
-46.32
-55.53
-65.22
-75.36
-85.83
-96.37
-106.44
-115.22
-121.68
-124.79
-123.80
-118.45
-109.09
-96.72
-82.81
-69.06
-57.08
-48.01
-42.31
-39.51
-38.35
-37.11
-34.21
-28.64
-20.37
-10.21
0.57
10.75
19.58
26.86
32.71
37.39
41.00
43.57
45.17
46.01
46.40
46.61
46.62
46.13
44.70
42.11
38.54
34.59
31.05
28.47
26.94
26.08
25.27
24.01
22.13
19.73
17.11
14.55
12.17
10.04
8.17
6.56
5.24
4.21
3.59
3.65
4.86
7.72
12.52
19.12
26.82
34.64
41.60
46.97
50.37
51.68
50.76
47.48
41.58
32.92
21.59
7.97
-7.11
-22.33
-35.97
-46.21
-51.42
-50.76
-44.28
-32.93
-18.19
-1.67
15.25
31.41
45.91
58.03
67.31
73.70
77.60
79.68
80.61
80.77
80.07
78.05
74.21
68.19
60.02
50.19
39.45
28.62
18.32
8.86
0.29
-7.46
-14.44
-20.52
-25.52
-29.44
-32.46
-34.98
-37.38
-39.85
-42.30
-44.54
-46.39
-47.87
-49.18
-50.50
-51.83
-53.03
-53.85
-54.03
-53.50
-52.33
-50.73
-49.06
-47.75
-47.28
-48.05
-50.22
-53.65
-57.88
-62.35
-66.59
-70.35
-73.69
-76.75
-79.60
-81.99
-83.39
-83.07
-80.40
-75.19
-67.81
-59.17
-50.41
-42.56
-36.21
-31.40
-27.80
-24.88
-22.30
-20.08
-18.61
-18.54
-20.48
-24.64
-30.63
-37.44
-43.74
-48.32
-50.51
-50.41
-48.78
-46.65
-44.94
-44.00
-43.41
-41.86
-37.25
-27.16
-9.59
16.18
48.87
85.23
120.81
151.36
174.17
188.67
196.17
198.81
198.50
196.28
192.35
186.52
178.62
168.75
157.14
143.90
128.84
111.51
91.33
67.79
40.76
10.60
-21.81
-55.24
-88.45
-120.47
-150.67
-178.65
-204.04
-226.29
-244.89
-259.64
-271.01
-279.89
-286.92
-291.68
-292.13
-284.98
-266.56
-234.13
-186.53
-124.42
-49.91
33.63
121.55
208.06
286.68
351.44
398.44
426.95
439.47
440.50
434.66
424.99
412.38
395.98
374.41
346.65
312.60
272.94
228.90
181.98
133.87
86.39
41.35
0.37
-35.48
-65.80
-90.95
-111.84
-129.64
-145.39
-159.60
-172.23
-182.67
-190.10
-193.87
-193.76
-190.30
-184.63
-178.17
-172.28
-167.80
-164.91
-163.22
-161.91
-159.98
-156.51
-150.70
-142.07
-130.58
-116.67
-101.28
-85.55
-70.53
-56.97
-45.21
-35.30
-27.11
-20.46
-15.12
-10.85
-7.37
-4.44
-1.90
0.23
1.88
2.99
3.64
4.04
4.42
4.90
5.43
5.85
5.91
5.49
4.53
3.05
1.09
-1.43
-4.65
-8.77
-13.84
-19.68
-25.82
-31.57
-36.34
-39.87
-42.44
-44.82
-47.93
-52.47
-58.52
-65.44
-72.04
-77.08
-79.68
-79.62
-77.33
-73.69
-69.77
-66.55
-64.80
-64.95
-66.86
-69.65
-71.57
-70.47
-64.36
-52.33
-35.08
-14.81
5.58
23.58
37.83
48.38
56.22
62.63
68.62
74.74
81.13
87.61
93.75
98.86
102.14
102.83
100.70
96.20
90.40
84.75
80.54
78.52
78.66
80.32
82.51
84.30
85.16
84.98
84.01
82.54
80.70
78.29
74.92
70.25
64.19
56.96
48.98
40.67
32.29
23.82
15.12
6.03
-3.42
-12.93
-22.02
-30.31
-37.69
-44.48
-51.27
-58.66
-67.04
-76.45
-86.62
-97.12
-107.56
-117.59
-126.92
-135.25
-142.25
-147.67
-151.43
-153.68
-154.64
-154.57
-153.70
-152.30
-150.75
-149.57
-149.25
-149.95
-151.08
-151.09
-147.66
-138.15
-120.33
-93.24
-57.80
-16.77
25.94
66.41
101.99
131.97
157.29
179.71
200.48
219.64
236.03
248.06
254.63
255.67
252.07
245.09
235.76
224.56
211.67
197.33
182.14
166.84
152.08
137.99
124.16
109.87
94.55
78.19
61.43
45.24
30.52
17.78
6.96
-2.39
-10.90
-19.06
-26.98
-34.21
-39.84
-42.72
-41.94
-37.17
-28.96
-18.44
-6.92
4.73
16.20
27.70
39.49
51.60
63.61
74.93
84.97
93.28
99.61
103.89
106.35
107.65
108.87
111.10
115.03
120.51
126.46
131.35
133.88
133.63
131.18
127.82
124.89
123.21
122.66
122.13
119.93
114.29
104.15
89.55
71.69
52.45
33.71
16.73
1.90
-10.97
-22.21
-31.96
-40.23
-47.17
-53.30
-59.56
-66.88
-75.69
-85.70
-96.15
-106.29
-115.78
-124.84
-133.97
-143.50
-153.23
-162.34
-169.64
-173.92
-174.37
-170.74
-163.49
-153.46
-141.76
-129.46
-117.55
-106.83
-97.98
-91.50
-87.55
-85.90
-85.84
-86.44
-86.83
-86.61
-85.96
-85.48
-85.82
-87.25
-89.53
-92.05
-94.07
-94.97
-94.40
-92.27
-88.80
-84.64
-80.72
-78.04
-77.12
-77.54
-77.77
-75.52
-68.61
-55.85
-37.62
-15.74
7.21
28.80
47.44
62.57
74.41
83.49
90.28
94.89
97.27
97.37
95.41
91.95
87.81
83.75
80.12
76.58
72.20
65.84
56.73
45.00
31.76
18.90
8.56
2.64
2.44
8.34
19.71
34.83
51.21
66.01
76.79
82.01
81.44
75.90
66.91
56.08
44.81
34.16
24.88
17.48
12.10
8.52
6.10
3.97
1.23
-2.74
-8.16
-14.69
-21.56
-27.84
-32.83
-36.39
-39.03
-41.61
-44.85
-48.84
-53.00
-56.27
-57.79
-57.29
-55.29
-52.84
-51.13
-51.04
-52.85
-56.20
-60.31
-64.21
-67.04
-68.19
-67.53
-65.30
-62.13
-58.84
-56.26
-55.01
-55.28
-56.77
-58.62
-59.67
-58.66
-54.73
-47.64
-37.98
-26.90
-15.78
-5.94
1.80
7.05
9.93
10.92
10.69
9.99
9.51
9.71
10.76
12.63
15.16
18.32
22.22
27.04
32.86
39.52
46.66
53.84
60.65
66.73
71.67
74.94
75.96
74.34
70.18
64.06
56.91
49.60
42.65
36.12
29.87
23.81
18.10
13.10
9.06
5.91
3.19
0.28
-3.23
-7.20
-10.95
-13.61
-14.51
-13.65
-11.76
-9.97
-9.42
-10.81
-14.45
-20.21
-27.81
-36.60
-45.39
-52.40
-55.62
-53.57
-46.00
-34.21
-20.48
-7.14
4.38
13.90
22.01
29.27
35.61
40.30
42.59
42.23
39.74
36.02
31.75
27.02
21.44
14.65
6.83
-1.11
-8.03
-13.05
-16.07
-17.78
-19.25
-21.38
-24.54
-28.62
-33.15
-37.58
-41.54
-44.80
-47.41
-49.71
-52.31
-56.05
-61.60
-69.21
-78.63
-89.26
-100.55
-112.37
-124.93
-138.48
-152.74
-166.87
-179.67
-190.19
-198.32
-204.96
-211.84
-220.86
-233.53
-250.28
-270.26
-291.10
-309.02
-319.30
-317.07
-298.61
-262.52
-210.45
-146.89
-78.25
-11.46
47.63
95.25
130.28
153.93
169.06
179.13
187.34
196.06
206.62
219.41
234.00
249.31
263.82
275.82
283.88
287.41
286.94
284.01
280.53
277.99
276.83
276.42
275.44
272.59
267.21
259.39
249.91
239.79
229.84
220.59
212.21
204.72
197.96
191.53
184.55
175.60
163.01
145.36
122.12
94.16
63.74
34.08
8.50
-10.53
-22.02
-26.58
-26.04
-22.71
-18.70
-15.43
-13.52
-12.99
-13.45
-14.06
-13.47
-9.88
-1.59
12.27
30.90
51.73
71.06
85.42
92.81
93.36
89.07
82.85
77.35
74.24
74.01
76.10
79.28
81.99
82.70
80.37
74.81
66.91
58.22
50.22
43.67
38.20
32.70
26.04
17.74
8.03
-2.49
-13.42
-24.78
-36.83
-49.60
-62.67
-75.37
-87.23
-98.34
-109.29
-120.55
-132.08
-143.05
-152.34
-159.08
-163.12
-164.96
-165.29
-164.65
-163.30
-161.40
-159.33
-157.64
-156.85
-157.06
-157.88
-158.52
-158.17
-156.41
-153.13
-148.38
-142.08
-133.93
-123.62
-111.22
-97.31
-82.90
-69.05
-56.46
-45.25
-35.12
-25.65
-16.63
-8.20
-0.70
5.56
10.54
14.47
17.66
20.28
22.33
23.51
23.57
22.40
20.14
17.10
13.58
9.71
5.41
0.55
-4.94
-10.95
-17.21
-23.55
-29.98
-36.80
-44.45
-53.30
-63.55
-75.07
-87.47
-100.25
-112.74
-124.33
-134.62
-143.61
-151.99
-161.18
-172.92
-188.40
-207.09
-226.04
-239.93
-242.41
-228.13
-194.65
-143.42
-79.28
-8.86
61.31
126.17
182.42
228.14
262.28
284.61
295.85
298.01
293.94
286.45
277.18
266.08
251.81
232.88
208.94
181.32
152.72
126.02
103.10
84.23
68.13
52.79
36.37
17.65
-3.80
-27.83
-53.90
-81.04
-107.90
-132.86
-154.28
-170.99
-182.58
-189.44
-192.40
-192.50
-190.64
-187.34
-182.74
-176.76
-169.30
-160.58
-151.05
-141.29
-131.55
-121.48
-110.23
-96.91
-81.26
-64.13
-47.33
-32.80
-21.71
-13.98
-8.43
-3.51
1.99
8.82
17.41
28.16
41.65
58.25
77.80
99.57
122.38
145.06
166.72
186.92
205.36
221.82
235.98
247.56
256.51
262.99
267.44
270.55
273.03
275.36
277.51
278.51
276.49
269.03
253.93
230.29
199.15
163.36
126.70
92.51
62.55
36.65
13.41
-8.68
-30.00
-49.39
-64.63
-73.69
-75.90
-72.47
-65.93
-58.91
-52.96
-48.01
-42.92
-36.48
-28.30
-19.18
-10.69
-4.34
-0.91
-0.38
-2.13
-5.45
-9.74
-14.54
-19.42
-23.93
-27.61
-30.02
-30.75
-29.35
-25.48
-19.17
-11.12
-2.78
4.09
8.00
8.34
5.48
0.50
-5.37
-11.21
-16.58
-21.41
-25.76
-29.67
-33.29
-36.80
-40.47
-44.49
-48.82
-53.20
-57.20
-60.56
-63.19
-65.26
-67.12
-69.12
-71.55
-74.52
-77.90
-81.33
-84.33
-86.49
-87.65
-87.91
-87.69
-87.47
-87.68
-88.41
-89.43
-90.16
-89.73
-87.17
-81.62
-72.54
-59.95
-44.56
-27.62
-10.70
4.83
18.07
28.70
36.96
43.37
48.43
52.47
55.60
57.69
58.43
57.38
54.08
48.32
40.55
32.11
25.17
22.07
24.48
32.57
44.79
58.37
70.36
78.48
81.74
80.32
75.08
67.08
57.36
46.93
36.81
27.88
20.58
14.74
9.62
4.35
-1.71
-8.63
-15.97
-23.08
-29.40
-34.75
-39.26
-43.28
-47.21
-51.36
-55.84
-60.56
-65.22
-69.39
-72.67
-74.75
-75.57
-75.17
-73.75
-71.48
-68.70
-65.87
-63.60
-62.46
-62.68
-63.89
-65.13
-65.08
-62.60
-57.08
-48.65
-38.04
-26.30
-14.47
-3.41
6.25
14.05
19.73
23.28
25.01
25.45
25.25
25.03
25.19
25.83
26.85
28.00
29.03
29.78
30.28
30.52
30.52
30.18
29.31
27.86
25.97
23.95
22.22
20.98
20.03
18.88
17.00
14.16
10.57
6.83
3.59
1.16
-0.70
-2.60
-5.23
-9.03
-14.00
-19.73
-25.62
-31.14
-35.92
-39.91
-43.35
-46.69
-50.52
-55.34
-61.41
-68.60
-76.49
-84.37
-91.67
-97.95
-103.07
-107.01
-109.73
-110.97
-110.35
-107.50
-102.40
-95.53
-87.92
-81.05
-76.72
-76.73
-82.48
-94.17
-110.09
-126.07
-135.87
-132.73
-111.59
-71.26
-15.31
48.81
112.09
166.88
208.94
238.01
256.68
268.72
277.26
283.86
288.46
289.74
285.84
274.97
255.75
227.56
190.49
145.38
93.75
37.64
-20.52
-78.06
-132.46
-181.75
-224.61
-260.09
-287.04
-303.52
-306.57
-292.94
-260.32
-208.86
-141.94
-65.63
12.69
86.17
149.92
201.60
240.78
268.43
286.20
296.17
300.72
302.02
301.37
298.58
292.15
280.04
260.87
234.86
203.78
170.21
136.29
103.17
71.15
40.32
11.27
-14.86
-36.95
-54.55
-68.21
-79.15
-88.66
-97.57
-106.08
-113.99
-120.87
-126.38
-130.26
-132.38
-132.82
-131.89
-130.11
-127.95
-125.67
-123.16
-120.04
-115.96
-110.80
-104.87
-98.64
-92.50
-86.59
-80.79
-74.93
-68.95
-63.12
-57.92
-53.93
-51.46
-50.43
-50.28
-50.27
-49.74
-48.47
-46.80
-45.26
-44.23
-43.47
-42.10
-38.98
-33.25
-24.75
-14.11
-2.48
8.94
19.19
27.73
34.34
39.00
41.90
43.33
43.62
43.04
41.71
39.57
36.50
32.57
28.11
23.67
19.89
17.30
16.16
16.43
17.75
19.56
21.23
22.15
21.92
20.47
18.04
15.07
12.02
9.14
6.45
3.75
0.81
-2.53
-6.26
-10.22
-14.20
-18.03
-21.75
-25.57
-29.69
-34.21
-38.91
-43.38
-47.21
-50.27
-52.85
-55.66
-59.44
-64.63
-71.12
-78.23
-84.98
-90.40
-93.69
-94.08
-90.74
-82.80
-69.58
-51.02
-27.92
-1.96
24.66
49.72
71.44
88.68
100.91
108.05
110.43
108.76
104.15
97.93
91.29
84.90
78.79
72.43
65.15
56.55
46.67
35.87
24.55
13.15
2.28
-7.02
-13.22
-14.74
-10.74
-1.75
10.31
22.75
33.21
40.50
44.79
47.06
48.15
48.22
46.85
43.59
38.61
32.81
27.42
23.36
20.78
19.05
17.24
14.66
11.10
6.79
1.99
-3.27
-9.24
-16.10
-23.62
-30.92
-36.80
-40.08
-40.15
-37.17
-31.95
-25.59
-19.06
-13.06
-7.96
-4.02
-1.45
-0.39
-0.73
-2.10
-3.88
-5.40
-6.07
-5.62
-4.07
-1.74
0.90
3.27
4.91
5.60
5.47
5.02
4.81
5.31
6.60
8.42
10.36
12.05
13.32
14.07
14.23
13.56
11.84
9.01
5.35
1.46
-2.01
-4.67
-6.59
-8.25
-10.22
-12.80
-15.91
-19.13
-22.02
-24.35
-26.30
-28.24
-30.57
-33.51
-36.95
-40.54
-43.74
-45.87
-46.27
-44.41
-40.02
-33.31
-24.83
-15.44
-6.02
2.67
10.13
16.10
20.48
23.30
24.76
25.21
25.04
24.60
24.15
23.80
23.58
23.58
23.87
24.48
25.21
25.69
25.47
24.33
22.35
19.94
17.66
15.83
14.41
12.96
10.93
7.93
3.84
-1.05
-6.28
-11.39
-16.12
-20.50
-24.81
-29.47
-34.85
-41.11
-48.14
-55.54
-62.85
-69.71
-76.11
-82.37
-89.09
-96.94
-106.43
-117.69
-130.39
-143.81
-156.93
-168.68
-178.20
-185.10
-189.63
-192.68
-195.40
-198.67
-202.46
-205.33
-204.37
-195.73
-175.61
-141.37
-92.59
-31.31
