1673509535.00
64.000000
-0.00
-0.00
-0.00
-0.00
-0.00
-0.00
-0.00
-0.00
-0.00
-0.00
0.00
0.01
0.01
-0.00
-0.03
-0.05
-0.05
0.00
0.13
0.36
0.66
1.01
1.37
1.72
2.06
2.40
2.79
3.24
3.80
4.42
5.06
5.66
6.20
6.68
7.15
7.68
8.31
9.14
10.09
11.04
11.88
12.56
13.14
13.76
14.65
15.96
17.91
20.32
22.90
25.38
27.58
29.57
31.68
34.32
37.81
42.54
48.15
54.10
59.83
64.97
69.58
74.14
79.34
85.71
93.76
103.00
112.62
121.73
129.77
136.75
143.30
150.75
157.77
166.64
177.95
191.79
206.97
220.57
228.25
225.36
208.53
176.87
132.76
80.05
23.07
-34.94
-92.44
-149.16
-205.23
-260.37
-313.74
-363.87
-409.83
-450.91
-486.50
-515.74
-537.23
-549.22
-549.96
-538.37
-514.21
-478.67
-433.88
-382.45
-327.02
-269.84
-212.63
-156.66
-102.95
-52.37
-5.91
35.58
71.42
101.35
125.50
144.38
158.70
169.16
176.40
180.80
182.65
182.18
179.66
175.44
169.92
163.51
156.55
149.29
141.86
134.32
126.72
119.11
111.53
104.06
96.76
89.71
82.91
76.40
70.18
64.27
58.67
53.39
48.46
43.86
39.60
35.67
32.07
28.80
25.84
23.19
20.85
18.82
17.08
15.64
14.47
13.57
12.92
12.50
12.30
12.29
12.46
12.79
13.26
13.86
14.59
15.42
16.35
17.36
18.45
19.59
20.81
22.12
23.51
24.99
26.53
28.09
29.55
30.76
31.52
31.58
30.66
28.55
25.07
20.15
13.79
6.12
-2.59
-11.96
-21.44
-30.50
-38.59
-45.21
-49.99
-52.65
-53.03
-51.16
-47.24
-41.56
-34.57
-26.79
-18.71
-10.83
-3.49
3.00
8.44
12.77
16.17
18.77
20.76
22.30
23.51
24.54
25.37
25.98
26.40
27.01
27.98
29.42
31.44
33.96
37.06
40.33
43.47
46.23
49.15
52.39
56.05
60.34
65.30
71.33
78.21
85.81
93.87
103.03
113.10
123.47
133.42
141.63
147.17
148.33
143.71
132.11
114.27
90.79
62.45
30.26
-6.29
-41.08
-70.97
-94.16
-118.11
-142.48
-163.63
-177.88
-177.19
-160.35
-130.04
-91.47
-48.71
-3.95
42.78
89.42
131.41
163.27
180.17
181.37
169.17
147.60
119.99
88.64
53.58
14.43
-28.25
-73.76
-121.02
-170.11
-222.29
-279.64
-343.42
-413.45
-486.47
-555.77
-612.96
-650.01
-662.64
-652.03
-624.41
-588.17
-550.94
-517.08
-487.14
-459.54
-432.34
-404.68
-376.79
-348.94
-320.44
-289.65
-254.77
-214.95
-171.03
-125.31
-80.81
-39.96
-3.76
28.39
58.07
86.78
114.98
141.80
165.38
183.76
195.86
202.30
205.22
207.44
211.18
217.32
225.20
233.25
239.98
244.87
248.84
254.09
263.11
277.96
299.80
328.81
363.59
400.88
435.57
462.01
475.73
474.66
459.55
433.24
399.44
360.20
315.04
260.99
196.61
124.43
51.94
-10.12
-50.71
-60.67
-36.85
16.83
88.63
164.54
231.09
278.13
299.20
291.85
259.06
206.65
142.51
73.67
10.50
-35.60
-54.50
-41.29
2.68
73.18
161.91
258.18
347.43
419.36
468.54
495.30
503.67
484.13
434.28
357.73
284.22
224.03
178.49
138.66
101.12
64.88
29.91
-1.34
-27.85
-50.42
-74.41
-102.41
-134.11
-166.12
-195.05
-218.90
-234.76
-242.58
-244.76
-247.51
-254.34
-265.32
-276.62
-283.59
-283.23
-272.53
-253.14
-230.08
-211.80
-205.23
-214.63
-240.69
-281.26
-332.37
-384.13
-425.67
-446.09
-438.55
-401.76
-341.75
-270.22
-201.15
-147.47
-113.30
-98.26
-97.90
-107.40
-123.50
-145.54
-173.90
-196.37
-222.08
-242.45
-250.45
-242.43
-220.74
-192.78
-168.29
-154.77
-153.98
-153.06
-135.77
-92.71
-25.44
53.77
129.92
192.21
237.86
270.20
293.17
310.53
321.65
324.11
315.77
298.20
275.06
250.91
229.78
210.92
192.05
168.86
137.56
96.30
47.84
-3.46
-50.67
-89.62
-120.03
-143.40
-162.57
-179.52
-199.34
-218.41
-231.60
-234.05
-223.17
-199.18
-163.88
-120.94
-70.65
-19.97
25.71
63.27
93.27
118.44
141.68
164.84
186.66
203.02
208.31
200.31
180.53
154.90
133.23
119.70
115.48
117.49
119.27
113.72
97.82
73.50
47.21
26.65
16.86
18.99
29.58
42.64
51.83
53.99
46.73
32.06
13.62
-6.14
-26.23
-46.96
-68.18
-88.90
-106.79
-119.48
-125.64
-126.01
-123.30
-120.43
-119.64
-121.42
-125.23
-129.79
-133.63
-135.41
-134.48
-130.74
-124.03
-114.68
-101.76
-85.09
-65.18
-42.96
-19.13
6.02
32.71
61.48
90.58
118.87
144.08
163.30
174.16
175.95
170.21
160.39
150.41
143.53
141.62
144.34
149.72
154.62
154.96
146.22
125.08
91.51
50.55
12.24
-11.93
-13.69
7.56
43.53
79.91
102.44
102.88
82.04
48.38
13.04
-15.24
-33.02
-41.70
-44.84
-45.15
-43.23
-37.94
-28.44
-15.74
-2.77
6.65
10.05
7.41
1.16
-5.28
-9.12
-9.74
-8.80
-9.21
-13.64
-23.21
-36.93
-52.01
-65.06
-73.21
-75.12
-71.28
-63.38
-53.68
-44.14
-35.88
-29.17
-23.72
-19.06
-14.85
-11.35
-8.84
-7.70
-8.12
-9.94
-12.47
-14.67
-15.36
-13.62
-9.43
-3.35
3.14
7.99
9.16
5.35
-3.66
-16.81
-30.73
-44.17
-55.81
-65.24
-72.84
-79.43
-85.85
-92.81
-100.95
-110.46
-120.64
-128.67
-130.33
-121.51
-100.30
-68.64
-32.33
1.09
25.42
37.89
40.14
36.25
30.33
24.64
19.30
13.50
6.76
-0.16
-6.06
-9.83
-11.50
-12.22
-13.45
-16.22
-20.43
-24.83
-27.44
-26.69
-21.53
-11.86
1.35
16.57
32.20
47.05
60.37
71.75
80.62
86.28
87.83
84.44
75.66
61.79
43.90
23.32
2.54
-16.36
-31.80
-42.91
-49.47
-51.78
-50.34
-45.80
-38.86
-30.16
-20.57
-10.82
-1.60
6.58
13.42
18.86
22.96
25.89
27.92
29.20
29.79
29.69
28.79
27.01
24.27
20.46
15.53
9.52
2.49
-5.35
-13.78
-22.53
-31.14
-39.24
-46.59
-53.04
-58.54
-63.20
-67.24
-70.96
-74.72
-78.63
-82.84
-87.46
-92.57
-98.18
-104.25
-110.66
-117.30
-124.12
-130.71
-136.76
-142.02
-146.24
-149.15
-150.36
-149.33
-145.33
-139.79
-133.29
-126.34
-119.40
-112.87
-107.13
-102.39
-98.76
-96.17
-94.51
-93.19
-91.68
-89.48
-86.11
-81.24
-74.57
-65.97
-55.45
-43.20
-29.30
-14.07
2.09
18.69
35.30
51.53
67.10
81.72
95.01
106.58
115.71
121.57
123.31
120.38
112.73
100.87
85.85
69.17
52.60
37.85
26.47
19.68
18.24
22.39
31.75
45.57
63.11
84.16
109.24
139.34
174.82
214.23
253.69
287.54
310.08
317.88
311.27
294.27
272.88
252.68
236.96
226.23
219.15
214.07
210.17
207.85
208.20
212.16
220.11
231.66
245.67
260.19
272.05
276.60
268.02
240.67
191.75
123.80
45.85
-28.39
-84.88
-114.77
-118.23
-104.35
-87.09
-79.08
-86.50
-107.50
-134.39
-158.13
-172.53
-175.86
-170.03
-158.27
-143.12
-126.00
-107.94
-90.46
-75.79
-66.30
-63.02
-64.86
-68.74
-70.67
-67.61
-58.84
-46.22
-33.45
-24.25
-20.69
-22.45
-27.24
-31.92
-34.26
-33.80
-31.99
-31.45
-34.76
-43.41
-57.20
-74.20
-91.16
-104.38
-110.73
-108.81
-99.56
-86.02
-72.25
-61.78
-56.29
-55.02
-55.35
-54.24
-49.87
-42.56
-34.66
-29.19
-28.27
-31.98
-38.28
-44.06
-46.58
-44.63
-38.91
-31.21
-23.27
-15.75
-8.04
0.96
11.93
24.55
37.76
50.28
61.35
70.91
79.42
87.34
94.64
100.68
104.39
104.75
101.34
94.70
86.33
78.10
71.39
66.45
61.99
55.90
46.24
32.34
15.27
-2.60
-18.76
-31.72
-41.46
-49.14
-56.09
-62.92
-69.24
-74.03
-76.44
-76.31
-74.19
-70.93
-67.51
-64.67
-63.07
-63.11
-64.83
-67.73
-70.66
-71.93
-69.88
-63.52
-53.04
-39.88
-26.25
-14.25
-5.32
0.13
2.96
5.21
10.10
21.63
43.28
76.31
118.26
162.29
198.48
217.27
213.71
190.58
157.97
128.89
113.24
113.40
123.67
134.15
136.34
126.68
106.43
78.59
45.05
6.38
-35.63
-75.15
-102.55
-108.67
-91.06
-57.69
-24.93
-10.38
-24.41
-65.26
-120.33
-172.07
-205.19
-211.35
-189.38
-142.44
-75.13
7.73
100.11
193.38
276.28
337.00
366.45
361.16
324.50
264.92
193.03
118.32
47.09
-18.20
-78.12
-134.57
-188.59
-238.45
-279.22
-303.82
-305.86
-282.81
-237.88
-179.43
-117.99
-62.61
-18.44
13.20
33.20
42.81
42.71
33.58
16.89
-4.60
-27.51
-48.97
-67.45
-82.63
-94.76
-104.16
-110.64
-113.70
-112.66
-107.03
-96.81
-82.64
-65.73
-47.70
-30.06
-13.63
1.69
16.59
31.83
47.67
63.81
79.55
94.09
106.59
116.25
122.48
125.17
125.17
124.30
124.79
128.38
135.48
144.77
153.47
157.93
154.53
140.66
115.46
80.43
39.34
-2.59
-40.08
-69.48
-89.87
-102.98
-111.90
-119.29
-125.88
-130.28
-129.94
-122.71
-108.26
-88.35
-66.39
-46.12
-30.31
-19.75
-13.40
-9.21
-5.20
-0.47
4.65
8.80
10.23
7.34
-0.51
-12.92
-28.15
-43.03
-53.52
-55.16
-44.69
-21.46
11.86
50.40
88.07
119.19
139.87
148.17
145.14
133.95
118.91
104.52
95.41
94.41
101.73
115.06
129.53
141.50
149.20
152.78
154.09
156.95
164.65
178.49
197.23
215.51
228.49
232.49
226.24
212.03
197.22
190.60
199.11
224.84
261.69
301.07
333.90
353.16
343.11
297.40
219.16
119.63
26.63
-51.49
-115.60
-169.44
-219.06
-265.22
-304.25
-332.48
-348.62
-354.43
-355.89
-356.68
-357.87
-358.62
-356.94
-350.03
-336.84
-318.43
-297.23
-277.39
-260.38
-245.39
-230.85
-215.20
-197.31
-177.53
-157.38
-138.88
-124.68
-115.30
-109.53
-105.35
-100.58
-93.32
-82.66
-68.52
-51.42
-32.50
-12.23
9.48
32.59
56.86
81.50
105.26
126.74
144.71
158.17
166.69
170.34
169.35
164.16
155.16
142.54
126.19
105.59
79.99
48.98
13.01
-26.21
-65.85
-102.62
-133.66
-157.16
-172.58
-180.20
-180.54
-174.03
-161.09
-142.41
-119.20
-93.17
-66.08
-39.35
-13.69
10.78
34.21
56.71
78.24
98.73
118.00
135.73
151.16
163.15
170.58
172.82
170.15
163.40
153.25
139.44
120.71
95.25
61.95
21.27
-24.72
-72.92
-120.14
-163.53
-200.45
-228.26
-244.84
-249.32
-242.90
-228.83
-211.35
-194.10
-178.79
-165.19
-152.10
-138.75
-125.57
-113.89
-104.64
-97.25
-89.28
-77.28
-58.34
-31.51
1.56
36.68
67.99
89.63
97.74
92.16
77.11
59.92
48.24
46.84
55.61
70.03
83.82
92.35
94.65
93.22
91.81
92.91
96.48
100.58
103.25
104.00
104.03
105.10
108.06
111.97
114.54
113.19
106.28
93.88
77.63
60.10
43.80
30.46
20.51
13.21
7.27
1.49
-4.60
-10.58
-15.41
-17.95
-17.57
-14.46
-9.52
-3.95
1.22
5.46
8.72
11.15
12.92
13.92
13.90
12.64
10.15
6.76
2.99
-0.75
-4.32
-7.74
-11.16
-14.64
-18.17
-21.71
-25.23
-28.75
-32.28
-35.78
-39.04
-41.87
-44.08
-45.61
-46.47
-46.60
-45.79
-43.67
-39.90
-34.21
-26.57
-17.15
-6.34
5.21
16.66
26.99
35.19
40.53
42.68
41.94
39.15
35.43
31.79
28.98
27.31
26.73
26.97
27.62
28.24
28.45
28.01
26.91
25.36
23.69
22.18
20.86
19.58
18.04
16.11
13.93
11.87
10.27
9.18
8.32
7.28
5.74
3.67
1.35
-0.88
-2.78
-4.37
-5.87
-7.49
-9.27
-11.10
-12.76
-14.09
-15.10
-16.01
-17.05
-18.51
-20.52
-23.00
-25.76
-28.41
-30.56
-31.85
-32.12
-31.35
-29.72
-27.49
-24.90
-22.20
-19.57
-17.16
-15.08
-13.30
-11.64
-9.88
-7.85
-5.59
-3.38
-1.60
-0.53
-0.23
-0.55
-1.12
-1.71
-2.18
-2.51
-2.71
-2.62
-1.98
-0.67
1.24
3.44
5.44
6.87
7.58
7.70
7.51
7.23
6.99
6.80
6.63
6.46
6.39
6.49
6.76
7.10
7.34
7.35
7.05
6.49
5.71
4.80
3.79
2.68
1.52
0.34
-0.75
-1.65
-2.31
-2.83
-3.23
-3.63
-4.02
-4.25
-4.19
-3.70
-2.81
-1.61
-0.36
0.78
1.68
2.31
2.75
3.04
3.17
3.06
2.67
2.06
1.32
0.65
0.18
0.04
0.21
0.59
1.04
1.45
1.81
2.09
2.35
2.58
2.77
2.87
2.84
2.64
2.24
1.65
0.85
-0.15
-1.37
-2.79
-4.40
-6.15
-7.99
-9.82
-11.55
-13.04
-14.13
-14.70
-14.66
-13.94
-12.59
-10.66
-8.38
-5.96
-3.66
-1.62
0.01
1.15
1.79
1.94
1.72
1.25
0.70
0.27
0.19
0.62
1.61
3.15
5.01
6.95
8.62
9.73
10.16
9.87
8.97
7.63
6.01
4.19
2.25
0.24
-1.76
-3.65
-5.36
-6.82
-7.96
-8.64
-8.76
-8.17
-6.86
-5.00
-2.83
-0.65
1.37
3.17
4.79
6.20
7.30
7.91
7.89
7.25
6.20
5.04
3.97
3.11
2.46
1.99
1.73
1.72
2.06
2.76
3.73
4.78
5.69
6.22
6.29
5.84
4.89
3.52
1.84
-0.04
-2.01
-3.96
-5.85
-7.56
-9.05
-10.19
-10.88
-11.03
-10.58
-9.64
-8.39
-7.14
-6.18
-5.66
-5.47
-5.32
-4.84
-3.77
-2.12
-0.16
1.68
3.05
3.88
4.35
4.73
5.20
5.75
6.23
6.43
6.27
5.83
5.29
4.85
4.62
4.60
4.66
4.67
4.52
4.18
3.69
3.19
2.78
2.56
2.51
2.44
2.25
1.86
1.33
0.78
0.34
0.05
-0.16
-0.43
-0.95
-1.75
-2.83
-4.00
-5.08
-5.87
-6.38
-6.67
-6.92
-7.28
-7.72
-8.12
-8.27
-8.01
-7.31
-6.28
-5.06
-3.73
-2.33
-0.78
0.94
2.73
4.40
5.67
6.40
6.58
6.37
6.02
5.72
5.59
5.57
5.54
5.35
4.97
4.45
3.91
3.42
3.02
2.65
2.27
1.87
1.38
0.86
0.33
-0.16
-0.53
-0.77
-0.91
-1.06
-1.31
-1.78
-2.50
-3.45
-4.50
-5.59
-6.66
-7.71
-8.62
-9.26
-9.45
-9.04
-7.99
-6.41
-4.51
-2.48
-0.51
1.33
2.98
4.37
5.42
6.07
6.36
6.40
6.32
6.14
5.83
5.31
4.51
3.52
2.56
1.84
1.53
1.55
1.67
1.56
1.05
0.16
-0.93
-1.96
-2.79
-3.35
-3.70
-3.86
-3.88
-3.73
-3.46
-3.20
-3.11
-3.36
-3.91
-4.58
-5.06
-5.06
-4.47
-3.33
-1.85
-0.22
1.34
2.75
3.92
4.83
5.43
5.65
5.49
4.97
4.21
3.28
2.26
1.21
0.20
-0.63
-1.17
-1.29
-1.00
-0.42
0.21
0.65
0.76
0.47
-0.11
-0.85
-1.70
-2.61
-3.60
-4.63
-5.56
-6.19
-6.43
-6.33
-6.11
-6.02
-6.21
-6.58
-6.78
-6.42
-5.25
-3.39
-1.19
0.93
2.71
4.06
5.02
5.66
5.89
5.64
4.83
3.62
2.28
1.09
0.22
-0.30
-0.64
-0.89
-1.08
-1.11
-0.87
-0.41
0.16
0.61
0.81
0.74
0.47
0.13
-0.24
-0.65
-1.20
-1.89
-2.65
-3.34
-3.85
-4.13
-4.29
-4.58
-5.11
-5.94
-6.88
-7.55
-7.58
-6.72
-5.01
-2.74
-0.42
1.54
2.88
3.61
3.90
3.95
3.90
3.79
3.67
3.53
3.41
3.28
3.08
2.74
2.19
1.55
0.93
0.59
0.64
1.11
1.78
2.42
2.80
2.71
2.13
1.12
-0.18
-1.58
-2.81
-3.75
-4.33
-4.66
-4.98
-5.48
-6.28
-7.22
-8.06
-8.42
-8.11
-7.07
-5.46
-3.53
-1.49
0.45
2.15
3.50
4.40
4.85
4.96
4.91
4.82
4.80
4.83
4.85
4.74
4.43
3.90
3.15
2.27
1.30
0.41
-0.27
-0.58
-0.51
-0.17
0.18
0.27
0.02
-0.52
-1.10
-1.51
-1.68
-1.70
-1.81
-2.22
-3.06
-4.32
-5.92
-7.67
-9.41
-10.84
-11.61
-11.45
-10.23
-8.09
-5.42
-2.69
-0.27
1.64
3.14
4.41
5.58
6.64
7.40
7.67
7.36
6.56
5.53
4.48
3.56
2.71
1.81
0.81
-0.15
-0.81
-0.93
-0.49
0.26
0.91
1.11
0.72
-0.14
-1.20
-2.17
-2.92
-3.47
-3.96
-4.51
-5.13
-5.71
-6.18
-6.47
-6.61
-6.67
-6.68
-6.59
-6.29
-5.68
-4.63
-3.10
-1.20
0.92
3.02
4.86
6.27
7.17
7.56
7.48
7.01
6.20
5.16
4.02
2.97
2.13
1.56
1.19
0.86
0.49
0.07
-0.27
-0.41
-0.28
0.07
0.44
0.65
0.53
0.12
-0.49
-1.08
-1.53
-1.72
-1.74
-1.76
-1.97
-2.54
-3.51
-4.80
-6.23
-7.62
-8.79
-9.57
-9.87
-9.52
-8.43
-6.63
-4.32
-1.81
0.60
2.67
4.37
5.74
6.84
7.66
8.05
7.88
7.11
5.87
4.41
3.01
1.90
1.12
0.62
0.31
0.13
0.07
0.19
0.51
1.06
1.67
2.19
2.44
2.34
1.92
1.26
0.49
-0.35
-1.28
-2.34
-3.55
-4.91
-6.38
-7.92
-9.45
-10.89
-12.02
-12.60
-12.43
-11.45
-9.76
-7.60
-5.23
-2.82
-0.44
1.87
4.04
5.93
7.40
8.32
8.73
8.73
8.42
7.87
7.08
6.07
5.00
4.01
3.27
2.85
2.68
2.60
2.46
2.24
1.99
1.86
1.85
1.86
1.71
1.30
0.59
-0.25
-1.11
-1.92
-2.74
-3.71
-4.86
-6.14
-7.41
-8.53
-9.43
-10.12
-10.67
-11.00
-10.99
-10.43
-9.16
-7.20
-4.73
-2.05
0.54
2.80
4.59
5.84
6.56
6.82
6.76
6.49
6.14
5.74
5.24
4.60
3.86
3.09
2.46
2.09
2.02
2.20
2.49
2.80
3.08
3.39
3.68
3.89
3.81
3.31
2.34
0.99
-0.50
-1.85
-2.90
-3.64
-4.21
-4.83
-5.68
-6.81
-8.16
-9.57
-10.81
-11.77
-12.32
-12.38
-11.89
-10.85
-9.24
-7.12
-4.58
-1.76
1.06
3.61
5.68
7.14
7.96
8.24
8.07
7.53
6.71
5.68
4.60
3.71
3.15
2.97
3.02
3.09
2.94
2.53
1.98
1.50
1.26
1.24
1.27
1.15
0.80
0.26
-0.23
-0.47
-0.39
-0.10
0.10
-0.12
-0.89
-2.21
-3.88
-5.61
-7.20
-8.52
-9.58
-10.36
-10.82
-10.80
-10.21
-8.98
-7.25
-5.25
-3.28
-1.45
0.26
2.02
3.98
6.06
8.01
9.51
10.29
10.30
9.72
8.82
7.79
6.71
5.52
4.21
2.88
1.73
0.92
0.53
0.50
0.68
0.89
1.02
1.00
0.86
0.57
0.16
-0.38
-1.02
-1.74
-2.52
-3.36
-4.26
-5.21
-6.22
-7.33
-8.52
-9.69
-10.64
-11.02
-10.54
-9.07
-6.73
-3.92
-1.07
1.47
3.51
5.07
6.28
7.27
8.07
8.62
8.82
8.62
8.02
7.09
5.99
4.89
3.88
2.98
2.15
1.35
0.65
0.16
-0.02
0.18
0.70
1.30
1.74
1.83
1.53
0.89
0.05
-0.87
-1.79
-2.69
-3.59
-4.54
-5.59
-6.76
-8.07
-9.52
-10.96
-12.13
-12.78
-12.56
-11.32
-9.08
-6.08
-2.75
0.48
3.29
5.53
7.16
8.25
8.89
9.12
8.98
8.56
7.96
7.27
6.56
5.80
4.95
4.02
3.06
2.21
1.60
1.28
1.17
1.14
1.05
0.83
0.49
0.07
-0.35
-0.74
-1.09
-1.46
-1.92
-2.54
-3.38
-4.51
-5.98
-7.80
-9.92
-12.26
-14.54
-16.40
-17.40
-17.24
-15.79
-13.15
-9.65
-5.66
-1.62
2.14
5.42
8.09
10.08
11.41
12.10
12.19
11.76
10.87
9.67
8.32
7.00
5.86
5.02
4.47
4.16
3.97
3.80
3.56
3.20
2.67
1.98
1.17
0.27
-0.72
-1.79
-2.95
-4.12
-5.22
-6.17
-6.87
-7.33
-7.65
-7.97
-8.40
-8.96
-9.54
-9.94
-9.93
-9.33
-8.10
-6.37
-4.36
-2.27
-0.28
1.52
3.11
4.45
5.54
6.33
6.79
6.96
6.91
6.74
6.52
6.30
5.96
5.37
4.41
3.11
1.66
0.44
-0.29
-0.35
0.10
0.76
1.24
1.27
0.81
0.00
-0.97
-1.94
-2.81
-3.56
-4.19
-4.76
-5.38
-6.16
-7.22
-8.55
-9.95
-11.00
-11.22
-10.24
-7.95
-4.67
-1.02
2.29
4.76
6.25
6.98
7.31
7.55
7.88
8.20
8.39
8.33
8.02
7.54
7.02
6.54
6.15
5.86
5.64
5.47
5.32
5.19
5.08
4.93
4.65
4.08
3.08
1.58
-0.35
-2.56
-4.84
-7.00
-8.86
-10.39
-11.58
-12.45
-13.02
-13.22
-12.92
-12.02
-10.44
-8.20
-5.42
-2.30
0.94
4.05
6.82
9.11
10.82
11.91
12.43
12.45
12.07
11.35
10.28
8.94
7.44
5.93
4.58
3.48
2.61
1.98
1.60
1.56
1.97
2.84
4.03
5.18
5.99
6.21
5.80
4.92
3.69
2.27
0.69
-1.09
-3.05
-5.08
-7.05
-8.84
-10.39
-11.68
-12.63
-13.06
-12.78
-11.65
-9.64
-6.97
-3.95
-0.90
1.96
4.53
6.77
8.63
10.02
10.85
11.01
10.55
9.62
8.49
7.50
6.86
6.68
6.88
7.28
7.58
7.58
7.20
6.48
5.68
5.01
4.64
4.54
4.53
4.28
3.51
2.19
0.44
-1.37
-2.91
-4.00
-4.73
-5.39
-6.33
-7.80
-9.85
-12.35
-14.97
-17.36
-19.15
-20.03
-19.76
-18.27
-15.63
-12.06
-7.94
-3.74
0.11
3.26
5.56
7.05
7.94
8.44
8.72
8.78
8.59
8.13
7.48
6.83
6.38
6.25
6.43
6.76
7.06
7.25
7.37
7.50
7.74
8.03
8.24
8.22
7.87
7.23
6.49
5.81
5.25
4.74
4.12
3.26
2.16
0.91
-0.34
-1.51
-2.57
-3.57
-4.53
-5.50
-6.47
-7.39
-8.19
-8.75
-8.89
-8.45
-7.31
-5.51
-3.30
-0.98
1.12
2.80
3.99
4.68
4.93
4.75
4.22
3.41
2.45
1.56
0.94
0.74
0.92
1.40
2.03
2.70
3.36
3.98
4.52
4.92
5.18
5.34
5.46
5.58
5.69
5.69
5.48
4.98
4.21
3.34
2.50
1.74
0.99
0.04
-1.27
-3.06
-5.14
-7.21
-8.86
-9.74
-9.69
-8.71
-6.97
-4.68
-2.07
0.70
3.45
5.96
7.99
9.31
9.82
9.55
8.69
7.55
6.39
5.51
5.02
4.97
5.28
5.84
6.44
6.86
6.97
6.64
5.90
4.80
3.49
2.05
0.57
-0.90
-2.30
-3.54
-4.59
-5.40
-5.95
-6.37
-6.81
-7.41
-8.21
-9.08
-9.79
-10.16
-10.06
-9.47
-8.39
-6.88
-4.98
-2.75
-0.39
1.90
3.84
5.29
6.30
7.00
7.54
7.90
7.94
7.44
6.33
4.76
3.08
1.68
0.87
0.70
1.00
1.51
2.00
2.39
2.73
3.13
3.60
4.04
4.30
4.18
3.66
2.79
1.72
0.57
-0.63
-1.99
-3.58
-5.32
-6.97
-8.14
-8.44
-7.63
-5.78
-3.13
-0.06
3.03
5.79
8.01
9.54
10.39
10.68
10.55
10.18
9.63
8.91
7.99
6.84
5.54
4.22
3.03
2.05
1.26
0.63
0.12
-0.33
-0.79
-1.37
-2.23
-3.45
-4.96
-6.60
-8.12
-9.32
-10.09
-10.47
-10.55
-10.47
-10.35
-10.31
-10.48
-10.90
-11.45
-11.78
-11.54
-10.45
-8.51
-6.02
-3.46
-1.24
0.43
1.59
2.46
3.17
3.73
4.07
4.11
3.84
3.39
2.91
2.51
2.22
2.08
2.07
2.25
2.67
3.29
4.00
4.52
4.60
4.04
2.85
1.17
-0.76
-2.71
-4.46
-5.90
-7.01
-7.86
-8.57
-9.30
-10.16
-11.17
-12.25
-13.18
-13.71
-13.65
-12.82
-11.18
-8.78
-5.81
-2.56
0.62
3.34
5.37
6.59
7.11
7.17
6.94
6.55
6.03
5.42
4.71
3.97
3.24
2.45
1.58
0.64
-0.28
-1.01
-1.42
-1.47
-1.27
-0.99
-0.85
-0.93
-1.27
-1.82
-2.50
-3.24
-4.02
-4.82
-5.67
-6.67
-7.92
-9.47
-11.22
-12.90
-14.08
-14.30
-13.20
-10.74
-7.13
-2.82
1.61
5.66
9.00
11.45
13.01
13.75
13.72
12.98
11.60
9.68
7.38
4.95
2.63
0.66
-0.78
-1.67
-2.10
-2.23
-2.24
-2.25
-2.27
-2.21
-1.99
-1.58
-1.07
-0.62
-0.41
-0.58
-1.12
-1.94
-2.95
-4.14
-5.54
-7.22
-9.13
-10.98
-12.32
-12.72
-11.88
-9.91
-7.22
-4.33
-1.70
0.46
2.19
3.65
4.93
6.02
6.81
7.19
7.20
6.98
6.68
6.42
6.21
5.98
5.70
5.38
5.07
4.80
4.56
4.30
3.98
3.63
3.29
3.03
2.82
2.53
2.06
1.32
0.33
-0.85
-2.13
-3.49
-4.91
-6.40
-7.90
-9.24
-10.23
-10.67
-10.48
-9.67
-8.35
-6.65
-4.66
-2.46
-0.07
2.43
4.89
7.05
8.62
9.40
9.32
8.50
7.22
5.83
4.59
3.62
2.94
2.47
2.16
2.01
2.12
2.55
3.27
4.11
4.84
5.21
5.13
4.68
4.03
3.37
2.78
2.24
1.65
0.87
-0.13
-1.43
-3.07
-5.04
-7.28
-9.64
-11.94
-13.94
-15.47
-16.42
-16.78
-16.54
-15.73
-14.49
-13.05
-11.78
-10.98
-10.94
-11.77
-13.44
-15.83
-18.72
-21.79
-24.64
-26.91
-28.36
-29.08
-29.43
-29.81
-30.44
-31.09
-31.12
-29.75
-26.57
-21.81
-16.41
-11.73
-8.93
-8.58
-10.39
-13.31
-15.93
-17.02
-15.89
-12.61
-7.92
-2.80
1.81
5.35
7.85
10.13
13.76
20.82
33.11
51.14
73.32
95.92
114.08
123.47
121.92
110.23
91.77
70.90
51.44
35.48
23.40
14.52
8.03
3.45
0.70
-0.30
0.18
1.54
3.07
4.23
4.97
5.75
7.31
10.36
15.19
21.40
27.94
33.45
36.67
36.88
34.07
28.87
22.22
15.04
7.97
1.39
-4.48
-9.44
-13.33
-16.18
-18.21
-19.84
-21.27
-22.36
-22.42
-20.45
-15.39
-6.51
6.30
22.48
40.77
59.35
76.07
88.82
95.97
96.86
91.89
82.31
69.79
55.83
41.59
27.87
15.26
4.21
-4.92
-11.96
-17.05
-20.41
-22.37
-23.18
-23.06
-22.37
-21.59
-21.33
-22.03
-23.93
-26.91
-30.71
-34.88
-38.98
-42.44
-44.72
-45.36
-44.16
-41.25
-36.98
-31.93
-26.60
-21.43
-16.71
-12.63
-9.40
-7.20
-6.02
-5.60
-5.41
-4.81
-3.21
-0.40
3.44
7.74
11.59
14.07
14.30
11.72
6.14
-2.13
-12.30
-23.08
-32.86
-39.97
-43.05
-41.43
-35.43
-26.30
-16.17
-7.46
-2.32
-2.07
-6.84
-15.72
-27.17
-39.47
-51.01
-60.51
-66.97
-69.72
-68.42
-63.14
-54.31
-42.85
-30.11
-17.79
-7.87
-2.15
-1.89
-7.25
-17.03
-28.93
-40.22
-48.61
-52.82
-52.64
-48.49
-41.22
-31.99
-22.37
-14.41
-10.22
-11.30
-18.07
-29.69
-44.36
-59.95
-74.54
-86.50
-94.41
-96.98
-93.33
-83.63
-69.73
-55.01
-43.81
-40.18
-46.49
-62.50
-85.10
-108.92
-127.78
-136.35
-131.54
-113.17
-83.64
-46.93
-7.53
30.55
64.16
91.05
109.84
120.04
122.02
117.07
107.25
94.98
82.65
72.19
64.81
60.89
59.99
61.03
62.71
64.01
64.35
63.71
62.32
60.36
57.84
54.58
50.56
46.05
41.56
37.63
34.56
32.30
30.45
28.56
26.31
23.72
21.20
19.23
18.18
18.05
18.48
18.85
18.55
17.19
14.79
11.71
8.46
5.48
3.01
1.06
-0.42
-1.51
-2.19
-2.44
-2.35
-2.07
-1.81
-1.73
-1.88
-2.22
-2.66
-3.14
-3.70
-4.46
-5.50
-6.80
-8.25
-9.71
-11.09
-12.45
-13.87
-15.38
-16.95
-18.42
-19.49
-19.90
-19.41
-17.95
-15.59
-12.60
-9.24
-5.93
-2.89
-0.27
1.86
3.50
4.64
5.28
5.38
5.03
4.30
3.45
2.77
2.42
2.54
3.03
3.72
4.30
4.60
4.50
4.08
3.48
2.75
1.90
0.82
-0.58
-2.35
-4.41
-6.67
-9.00
-11.37
-13.75
-15.96
-17.74
-18.60
-18.15
-16.11
-12.63
-8.07
-3.02
1.91
6.33
9.99
12.87
15.09
16.82
18.14
19.15
19.89
20.40
20.73
20.84
20.80
20.62
20.41
20.25
20.27
20.52
20.94
21.34
21.44
21.08
20.34
19.54
19.15
19.58
20.87
22.55
23.92
24.38
23.85
22.89
22.38
23.28
26.25
31.23
37.49
44.08
50.33
56.18
62.21
69.31
78.15
88.99
101.20
113.32
123.61
130.75
134.25
134.49
132.26
128.50
124.30
120.30
116.18
110.37
100.13
82.12
53.57
13.38
-38.53
-97.02
-152.83
-195.94
-219.87
-224.15
-213.25
-193.36
-169.54
-144.82
-120.37
-97.16
-76.66
-60.53
-49.72
-43.87
-41.42
-40.17
-38.28
-34.51
-28.86
-22.47
-16.87
-13.21
-11.74
-11.77
-12.15
-11.85
-10.18
-7.20
-3.64
-0.44
1.65
2.46
2.34
1.95
1.88
2.51
3.85
5.56
7.19
8.39
9.06
9.28
9.34
9.49
9.91
10.66
11.72
13.08
14.78
16.97
19.73
23.22
27.42
32.20
37.22
42.01
46.05
48.80
49.83
48.70
45.19
39.38
31.59
22.39
12.53
2.81
-6.04
-13.52
-19.36
-23.58
-26.33
-27.87
-28.40
-28.11
-27.13
-25.62
-23.73
-21.68
-19.78
-18.23
-17.10
-16.21
-15.32
-14.24
-12.80
-11.01
-8.97
-6.90
-4.98
-3.30
-1.92
-0.80
0.07
1.08
2.94
6.51
12.45
20.77
30.75
41.07
50.42
57.64
62.44
65.30
67.04
68.41
69.86
71.56
73.61
76.27
79.40
82.85
86.26
88.99
90.30
89.50
86.13
79.84
73.37
68.24
65.36
64.90
66.20
68.10
69.38
69.25
67.67
65.22
62.33
59.33
56.12
52.19
46.88
39.83
31.25
22.05
13.48
6.49
1.52
-1.43
-2.96
-3.86
-4.81
-6.26
-8.48
-11.68
-16.03
-21.03
-25.29
-26.82
-23.87
-15.96
-4.51
7.48
16.64
20.64
19.09
13.33
5.45
-2.90
-10.99
-18.82
-26.35
-32.99
-37.61
-39.08
-37.07
-32.22
-25.98
-19.94
-15.36
-12.65
-11.58
-11.62
-12.32
-13.61
-15.77
-19.20
-24.18
-30.60
-37.99
-45.76
-53.29
-60.21
-66.36
-71.81
-76.77
-81.44
-85.96
-90.33
-94.57
-98.65
-102.67
-106.71
-110.88
-115.25
-119.75
-124.14
-128.07
-131.26
-133.47
-134.71
-135.09
-134.82
-133.99
-132.44
-129.70
-125.11
-118.13
-108.46
-96.40
-82.66
-68.27
-54.26
-41.44
-30.24
-20.75
-12.88
-6.42
-1.26
2.63
5.28
6.74
7.18
6.95
6.48
6.14
6.21
6.78
7.84
9.33
11.10
13.01
14.81
16.19
16.86
16.65
15.53
13.72
11.56
9.33
7.15
4.87
2.19
-1.25
-5.56
-10.58
-15.68
-19.87
-22.11
-21.64
-18.29
-12.49
-5.14
2.74
10.24
16.79
22.11
26.13
28.85
30.26
30.43
29.53
27.92
26.02
24.18
22.62
21.31
20.13
19.00
17.93
17.06
16.58
16.60
16.91
17.21
16.96
15.80
13.59
10.45
6.71
2.77
-1.08
-4.78
-8.36
-12.08
-16.02
-20.07
-23.91
-27.01
-28.79
-28.72
-26.48
-21.99
-15.59
-7.81
0.49
8.36
15.03
20.03
23.25
24.89
25.33
24.91
23.91
22.54
20.90
19.15
17.34
15.50
13.62
11.78
10.09
8.79
8.06
7.94
8.31
8.80
9.02
8.70
7.70
6.05
3.90
1.43
-1.22
-3.87
-6.54
-9.30
-12.35
-15.96
-20.26
-25.09
-29.77
-33.35
-34.69
-33.01
-28.05
-20.23
-10.58
-0.25
9.67
18.39
25.47
30.70
34.02
35.47
35.27
33.75
31.34
28.51
25.60
22.80
20.19
17.70
15.39
13.39
11.83
10.85
10.43
10.48
10.74
10.96
10.85
10.23
9.00
7.14
4.77
2.05
-0.83
-3.69
-6.44
-9.09
-11.84
-14.92
-18.57
-22.76
-27.27
-31.53
-34.80
-36.22
-35.13
-31.13
-24.38
-15.47
-5.37
4.77
13.96
21.45
26.93
30.36
31.88
31.70
30.12
27.53
24.39
21.29
18.67
16.77
15.66
15.18
15.12
15.32
15.67
16.16
16.75
17.29
17.54
17.24
16.11
14.05
11.11
7.49
3.51
-0.51
-4.38
-7.99
-11.33
-14.40
-17.14
-19.58
-21.78
-23.94
-26.23
-28.73
-31.14
-32.93
-33.29
-31.47
-27.06
-20.22
-11.57
-2.02
7.44
16.04
23.25
28.83
32.66
34.79
35.28
34.42
32.61
30.38
28.23
26.49
25.31
24.60
24.20
23.95
23.76
23.54
23.26
22.81
22.11
21.03
19.30
16.62
12.67
7.25
0.35
-7.61
-15.98
-23.99
-30.99
-36.65
-40.90
-43.99
-46.32
-48.37
-50.51
-52.91
-55.38
-57.27
-57.76
-55.95
-51.34
-43.97
-34.41
-23.61
-12.49
-1.89
7.58
15.48
21.52
25.53
27.57
27.92
26.99
25.29
23.22
21.10
18.99
16.98
15.02
13.12
11.31
9.65
8.34
7.59
7.59
8.32
9.54
10.74
11.33
10.88
9.23
6.56
3.25
-0.30
-3.75
-6.92
-9.74
-12.17
-14.22
-15.97
-17.63
-19.49
-21.84
-24.76
-27.98
-30.97
-32.96
-33.26
-31.52
-27.72
-22.22
-15.56
-8.28
-0.92
6.04
12.14
16.98
20.26
21.95
22.27
21.56
20.35
18.99
17.70
16.56
15.53
14.57
13.65
12.81
12.07
11.58
11.44
11.70
12.33
13.19
13.97
14.23
13.68
12.12
9.74
6.89
4.01
1.51
-0.41
-1.79
-2.94
-4.23
-6.03
-8.56
-11.78
-15.31
-18.44
-20.40
-20.48
-18.40
-14.31
-8.83
-2.76
3.21
8.56
13.25
17.30
20.75
23.48
25.26
25.72
24.73
22.47
19.36
16.12
13.40
11.70
11.16
11.56
12.37
12.91
12.66
11.28
8.79
5.55
2.00
-1.32
-4.11
-6.21
-7.66
-8.57
-9.06
-9.17
-8.83
-8.02
-6.74
-5.24
-3.86
-2.96
-2.71
-3.04
-3.67
-4.25
-4.66
-4.92
-5.32
-6.20
-7.83
-10.37
-13.78
-17.82
-21.99
-25.59
-27.84
-28.08
-26.03
-21.80
-15.99
-9.38
-2.68
3.58
9.06
13.65
17.24
19.69
20.93
20.92
19.79
17.82
15.33
12.62
10.00
7.69
5.82
4.54
3.97
4.13
4.96
6.24
7.58
8.61
8.94
8.36
6.81
4.44
1.40
-2.06
-5.76
-9.54
-13.24
-16.79
-20.12
-23.14
-25.68
-27.51
-28.18
-27.29
-24.56
-19.97
-13.92
-7.04
-0.10
6.18
11.25
14.87
17.02
17.85
17.66
16.79
15.60
14.36
13.23
12.23
11.28
10.23
8.96
7.45
5.75
3.99
2.35
0.94
-0.13
-0.94
-1.57
-2.16
-2.76
-3.49
-4.39
-5.56
-7.10
-9.16
-11.91
-15.37
-19.45
-23.77
-27.72
-30.45
-31.19
-29.42
-25.10
-18.77
-11.31
-3.75
3.07
8.63
12.82
15.72
17.50
18.40
18.59
18.18
17.34
16.17
14.73
13.09
11.28
9.39
7.51
5.73
4.14
2.82
1.76
0.94
0.25
-0.41
-1.14
-2.07
-3.29
-4.82
-6.62
-8.74
-11.17
-13.97
-17.23
-20.85
-24.59
-27.99
-30.43
-31.25
-30.07
-26.79
-21.71
-15.50
-8.89
-2.52
3.17
7.98
11.86
14.78
16.73
17.64
17.42
16.17
14.17
11.91
9.89
8.49
7.86
7.88
8.21
8.45
8.39
7.96
7.31
6.55
5.73
4.82
3.70
2.33
0.66
-1.21
-3.23
-5.35
-7.60
-9.98
-12.58
-15.42
-18.43
-21.54
-24.47
-26.80
-27.89
-27.18
-24.23
-19.04
-12.12
-4.26
3.60
10.67
16.41
20.64
23.28
24.38
24.02
22.32
19.60
16.35
13.15
10.48
8.65
7.62
7.22
7.19
7.35
7.67
8.12
8.67
9.18
9.40
9.16
8.44
7.40
6.17
4.93
3.62
2.12
0.28
-1.95
-4.44
-6.95
-9.31
-11.58
-13.95
-16.81
-20.43
-24.85
-29.70
-34.25
-37.61
-38.97
-37.85
-34.17
-28.30
-20.97
-13.01
-5.20
1.81
7.59
11.86
14.57
15.83
15.90
15.16
14.04
12.87
11.87
11.06
10.41
9.85
9.47
9.38
9.71
10.50
11.62
12.80
13.84
14.57
14.94
14.93
14.53
13.71
12.45
10.78
8.70
6.32
3.67
0.82
-2.24
-5.41
-8.55
-11.59
-14.48
-17.37
-20.40
-23.67
-27.07
-30.25
-32.58
-33.35
-32.07
-28.58
-23.17
-16.45
-9.20
-2.13
4.28
9.74
14.17
17.54
19.81
21.03
21.29
20.67
19.35
17.59
15.68
13.92
12.55
11.74
11.51
11.68
12.04
12.27
12.27
12.02
11.57
11.03
10.46
9.83
9.00
8.00
6.77
5.39
3.93
2.41
0.85
-0.80
-2.61
-4.72
-7.21
-10.16
-13.64
-17.64
-21.93
-26.04
-29.33
-31.09
-30.77
-28.10
-23.26
-16.89
-9.82
-2.91
3.34
8.69
13.19
16.93
19.89
21.92
22.81
22.56
21.39
19.79
18.23
17.02
16.27
15.83
15.61
15.47
15.47
15.57
15.77
15.95
15.98
15.77
15.15
14.03
12.26
9.79
6.66
3.05
-0.75
-4.40
-7.65
-10.51
-13.05
-15.55
-18.26
-21.39
-25.02
-29.08
-33.31
-37.23
-40.28
-41.75
-41.05
-37.88
-32.30
-24.76
-16.03
-7.08
1.24
8.26
13.77
17.86
20.75
22.69
23.82
24.19
23.81
22.78
21.26
19.59
18.05
16.87
16.17
15.93
16.10
16.53
17.14
17.78
18.33
18.65
18.63
18.25
17.46
16.23
14.50
12.25
9.46
6.22
2.71
-0.80
-4.08
-6.99
-9.61
-12.05
-14.51
-17.09
-19.86
-22.80
-25.86
-28.94
-31.80
-34.05
-35.06
-34.25
-31.18
-25.85
-18.69
-10.49
-2.16
5.55
12.14
17.40
21.31
23.92
25.37
25.81
25.44
24.47
23.23
21.91
20.65
19.44
18.26
17.13
16.21
15.73
15.92
16.94
18.59
20.44
21.92
22.52
22.05
20.63
18.65
16.49
14.41
12.38
10.12
7.37
4.02
0.20
-3.74
-7.49
-10.83
-13.79
-16.60
-19.52
-22.80
-26.53
-30.62
-34.69
-38.13
-40.14
-39.95
-37.09
-31.61
-24.10
-15.50
-6.86
1.03
7.73
13.10
17.23
20.17
22.05
22.98
23.17
22.80
22.06
21.05
19.82
18.46
17.13
16.09
15.58
15.73
16.49
17.67
18.93
20.00
20.64
20.71
20.15
18.97
17.16
14.71
11.63
7.99
3.94
-0.26
-4.24
-7.77
-10.72
-13.19
-15.36
-17.49
-19.77
-22.28
-24.99
-27.69
-30.06
-31.61
-31.80
-30.09
-26.21
-20.31
-12.91
-4.85
3.04
10.07
15.82
20.13
22.97
24.49
24.77
23.98
22.35
20.13
17.68
15.31
13.31
11.78
10.75
10.13
9.82
9.72
9.86
10.27
11.05
12.14
13.38
14.47
15.02
14.73
13.42
11.09
8.01
4.54
1.10
-2.06
-4.81
-7.27
-9.70
-12.35
-15.45
-19.07
-23.01
-26.85
-30.03
-31.96
-32.15
-30.31
-26.38
-20.63
-13.66
-6.20
0.98
7.23
12.18
15.73
17.96
19.04
19.15
18.41
17.04
15.28
13.48
11.90
10.67
9.80
9.13
8.55
7.99
7.58
7.40
7.53
7.83
8.00
7.65
6.48
4.38
1.48
-1.86
-5.23
-8.29
-10.93
-13.27
-15.56
-18.18
-21.33
-25.12
-29.37
-33.68
-37.47
-40.01
-40.69
-39.03
-35.01
-28.90
-21.37
-13.21
-5.20
2.02
8.08
12.90
16.44
18.73
19.83
19.84
18.99
17.64
16.18
14.98
14.24
13.89
13.70
13.41
12.85
12.05
11.17
10.40
9.78
9.17
8.31
6.90
4.77
1.92
-1.55
-5.43
-9.47
-13.48
-17.38
-21.13
-24.79
-28.56
-32.54
-36.71
-40.76
-44.06
-45.81
-45.30
-42.10
-36.26
-28.28
-19.03
-9.47
-0.42
7.50
13.90
18.65
21.77
23.36
23.62
22.83
21.26
19.25
17.17
15.28
13.78
12.67
11.87
11.23
10.69
10.23
9.85
9.61
9.39
9.07
8.45
7.31
5.57
3.24
0.47
-2.48
-5.39
-8.09
-10.58
-13.06
-15.91
-19.48
-23.99
-29.29
-34.89
-39.96
-43.60
-44.98
-43.55
-39.26
-32.43
-23.81
-14.34
-5.00
3.43
10.39
15.63
19.17
21.15
21.79
21.31
20.01
18.23
16.40
14.87
13.87
13.38
13.22
13.12
12.89
12.50
12.09
11.72
11.35
10.84
9.92
8.38
6.11
3.20
-0.24
-3.99
-7.92
-11.94
-15.98
-20.02
-24.06
-28.17
-32.37
-36.86
-41.70
-46.78
-51.75
-55.90
-58.36
-58.31
-55.29
-49.26
-40.78
-30.69
-19.95
-9.49
0.01
8.11
14.55
19.27
22.38
24.11
24.81
24.85
24.49
23.95
23.29
22.54
21.78
21.19
20.97
21.27
22.09
23.22
24.37
25.14
25.20
24.35
22.51
19.75
16.24
12.32
8.38
4.83
1.88
-0.57
-2.87
-5.50
-8.95
-13.41
-18.73
-24.44
-29.73
-33.65
-35.32
-34.10
-29.78
-22.64
-13.46
-3.27
6.79
15.83
23.23
28.75
32.39
34.26
34.59
33.62
31.69
29.20
26.60
24.26
22.46
21.28
20.69
20.60
20.92
21.56
22.40
23.28
24.01
24.31
23.90
22.59
20.24
16.94
12.82
8.22
3.43
-1.20
-5.48
-9.42
-13.17
-17.05
-21.36
-26.21
-31.32
-36.13
-39.69
-41.09
-39.75
-35.64
-29.34
-21.74
-13.80
-6.13
0.88
7.06
12.28
16.50
19.85
22.65
25.36
28.27
31.38
34.29
36.44
37.47
37.39
36.61
35.55
34.52
33.50
32.33
30.89
29.25
27.68
26.37
25.31
24.21
22.60
20.00
16.17
11.22
5.54
-0.29
-5.84
-10.87
-15.46
-19.96
-24.80
-30.25
-36.23
-42.24
-47.41
-50.80
-51.58
-49.32
-44.08
-36.39
-27.04
-16.84
-6.49
3.48
12.59
20.48
26.86
31.55
34.52
35.97
36.20
35.57
34.43
33.02
31.60
30.30
29.24
28.47
27.94
27.64
27.52
27.51
27.52
27.43
27.06
26.24
24.78
22.56
19.50
15.66
11.22
6.43
1.62
-3.02
-7.32
-11.38
-15.36
-19.50
-23.94
-28.74
-33.83
-39.08
-44.29
-49.12
-53.01
-55.23
-54.97
-51.65
-45.16
-35.92
-24.87
-13.14
-1.90
7.94
15.86
21.68
25.54
27.74
28.73
28.92
28.64
28.09
27.34
26.44
25.46
24.56
23.90
23.63
23.80
24.36
25.19
26.05
26.68
26.83
26.31
25.02
22.99
20.38
17.35
14.05
10.54
6.80
2.74
-1.62
-6.22
-10.95
-15.58
-19.94
-23.91
-27.55
-31.02
-34.60
-38.47
-42.59
-46.55
-49.56
-50.65
-48.95
-44.05
-36.11
-26.00
-14.95
-4.28
5.00
12.41
17.96
21.99
24.83
26.69
27.56
27.47
26.55
25.14
23.70
22.59
21.95
21.72
21.64
21.55
21.46
21.49
21.78
22.31
22.84
23.01
22.51
21.11
18.73
15.54
11.78
7.71
3.56
-0.51
-4.49
-8.41
-12.43
-16.72
-21.50
-26.77
-32.33
-37.65
-41.94
-44.36
-44.16
-41.08
-35.35
-27.60
-18.68
-9.44
-0.51
7.68
14.78
20.57
24.87
27.62
28.94
29.10
28.40
27.17
25.63
23.97
22.36
20.94
19.81
19.01
18.41
17.81
17.02
15.99
14.80
13.61
12.45
11.10
9.24
6.58
3.04
-1.09
-5.33
-9.22
-12.58
-15.54
-18.56
-21.99
-26.08
-30.80
-35.78
-40.40
-43.98
-45.75
-45.15
-41.88
-36.00
-28.00
-18.66
-8.94
0.34
8.44
14.88
19.43
22.13
23.24
23.19
22.55
21.79
21.24
20.96
20.81
20.56
20.06
19.26
18.23
17.13
16.05
15.00
13.90
12.73
11.48
10.13
8.64
6.85
4.60
1.75
-1.64
-5.42
-9.27
-12.95
-16.39
-19.73
-23.25
-27.26
-31.99
-37.33
-42.71
-47.19
-49.64
-49.10
-45.15
-38.04
-28.66
-18.24
-7.94
1.42
9.38
15.81
20.76
24.32
26.62
27.83
28.12
27.71
26.78
25.44
23.82
22.03
20.18
18.40
16.84
15.63
14.83
14.41
14.25
14.12
13.76
12.86
11.27
8.96
6.04
2.68
-0.97
-4.76
-8.63
-12.46
-16.22
-19.87
-23.45
-27.15
-31.19
-35.67
-40.52
-45.27
-49.05
-50.94
-50.09
-46.15
-39.35
-30.39
-20.27
-10.02
-0.50
7.80
14.58
19.72
23.17
24.97
25.32
24.56
23.22
21.84
20.86
20.48
20.59
20.90
21.04
20.78
20.09
19.15
18.23
17.55
17.16
16.88
16.36
15.19
13.20
10.41
7.07
3.55
0.10
-3.20
-6.38
-9.58
-12.82
-16.11
-19.42
-22.82
-26.43
-30.27
-34.01
-37.03
-38.50
-37.68
-34.32
-28.65
-21.39
-13.42
-5.59
1.58
7.71
12.61
16.15
18.19
18.75
18.02
16.39
14.32
12.28
10.60
9.37
8.56
7.98
7.51
7.13
6.89
6.91
7.21
7.66
8.04
8.17
7.76
6.74
5.07
2.76
-0.08
-3.30
-6.71
-10.10
-13.31
-16.41
-19.52
-22.88
-26.59
-30.52
-34.24
-37.07
-38.22
-37.02
-33.23
-27.04
-19.05
-10.15
-1.21
6.99
13.93
19.25
22.82
24.55
24.52
22.97
20.34
17.23
14.17
11.56
9.59
8.19
7.17
6.39
5.83
5.63
5.99
7.06
8.68
10.43
11.67
11.79
10.48
7.73
3.98
-0.21
-4.26
-7.87
-11.03
-14.01
-17.15
-20.78
-25.09
-30.04
-35.31
-40.24
-43.98
-45.66
-44.62
-40.61
-33.93
-25.37
-15.98
-6.86
1.19
7.71
12.69
16.40
19.10
20.99
22.03
22.20
21.45
20.00
18.20
16.43
15.04
14.06
13.38
12.81
12.24
11.64
11.10
10.70
10.44
10.19
9.67
8.65
7.00
4.74
2.05
-0.79
-3.53
-6.08
-8.48
-11.00
-13.89
-17.39
-21.57
-26.34
-31.39
-36.27
-40.38
-42.94
-43.19
-40.49
-34.67
-26.22
-16.15
-5.86
3.37
10.72
16.05
19.70
22.24
24.04
25.23
25.77
25.58
24.79
23.71
22.71
22.04
21.76
21.67
21.58
21.31
20.78
20.01
19.02
17.86
16.57
15.18
13.65
11.94
9.87
7.29
4.12
0.41
-3.59
-7.52
-11.06
-14.07
-16.55
-18.75
-20.94
-23.48
-26.65
-30.52
-34.91
-39.29
-42.80
-44.48
-43.50
-39.47
-32.60
-23.64
-13.72
-4.01
4.52
11.34
16.31
19.57
21.49
22.37
22.43
21.77
20.44
18.62
16.64
14.90
13.69
13.15
13.20
13.61
14.16
14.70
15.18
15.58
15.85
15.85
15.43
14.37
12.61
10.16
7.16
3.83
0.43
-2.84
-5.78
-8.31
-10.35
-11.99
-13.44
-15.02
-17.13
-20.11
-24.08
-28.72
-33.31
-36.82
-38.29
-37.05
-32.98
-26.56
-18.61
-10.15
-1.95
5.45
11.80
16.96
20.83
23.37
24.62
24.79
24.19
23.23
22.19
21.22
20.31
19.40
18.46
17.51
16.67
15.99
15.50
15.07
14.57
13.88
12.86
11.36
9.23
6.46
3.07
-0.66
-4.38
-7.74
-10.51
-12.74
-14.73
-16.89
-19.59
-23.03
-27.06
-31.23
-34.84
-37.05
-37.16
-34.66
-29.56
-22.28
-13.69
-4.82
3.32
9.95
14.80
17.94
19.78
20.75
21.15
21.01
20.27
18.94
17.19
15.47
14.16
13.50
13.36
13.37
13.15
12.57
11.87
11.41
11.49
11.99
12.46
12.25
10.88
8.19
4.44
0.26
-3.82
-7.34
-10.27
-12.80
-15.18
-17.63
-20.26
-23.14
-26.30
-29.82
-33.60
-37.29
-40.22
-41.44
-40.15
-35.97
-29.25
-20.88
-12.06
-3.78
3.41
9.36
14.24
18.17
21.18
23.08
23.79
23.37
22.13
20.53
19.03
17.91
17.28
17.04
17.01
17.02
16.95
16.82
16.68
16.61
16.69
16.87
17.02
16.90
16.19
14.61
12.05
8.63
4.56
0.20
-4.19
-8.45
-12.47
-16.24
-19.83
-23.34
-26.88
-30.64
-34.61
-38.57
-41.91
-43.75
-43.18
-39.69
-33.37
-24.94
-15.57
-6.36
1.78
8.54
13.95
18.25
21.62
24.00
25.28
25.33
24.32
22.56
20.57
18.85
17.65
16.98
16.61
16.30
15.81
15.16
14.46
13.87
13.55
13.48
13.54
13.49
13.09
12.11
10.46
8.10
5.10
1.58
-2.32
-6.36
-10.37
-14.12
-17.59
-20.83
-24.09
-27.68
-31.70
-36.00
-40.01
-42.98
-44.09
-42.73
-38.67
-32.07
-23.52
-13.95
-4.42
4.08
10.83
15.58
18.45
19.96
20.66
21.03
21.24
21.34
21.25
21.00
20.72
20.54
20.53
20.68
20.86
20.89
20.67
20.21
19.59
18.86
17.96
16.72
14.95
12.51
9.45
5.94
2.28
-1.30
-4.63
-7.69
-10.56
-13.35
-16.15
-18.98
-21.96
-25.19
-28.77
-32.64
-36.39
-39.26
-40.33
-38.84
-34.55
-27.81
-19.50
-10.69
-2.36
4.90
10.91
15.65
19.18
21.51
22.63
22.54
21.46
19.74
17.84
16.16
14.85
13.91
13.16
12.51
11.96
11.70
11.93
12.71
13.83
14.81
15.07
14.14
11.85
8.40
4.27
0.03
-3.84
-7.06
-9.70
-11.89
-13.92
-16.06
-18.59
-21.70
-25.49
-29.75
-33.89
-37.07
-38.37
-37.18
-33.33
-27.21
-19.57
-11.33
-3.25
4.14
10.51
15.68
19.48
21.85
22.80
22.50
21.32
19.72
18.11
16.75
15.70
14.79
13.81
12.64
11.36
10.21
9.43
9.16
9.28
9.52
9.49
8.89
7.60
5.68
3.30
0.62
-2.20
-5.02
-7.72
-10.32
-12.92
-15.92
-19.73
-24.66
-30.64
-37.01
-42.65
-46.25
-46.81
-43.91
-37.90
-29.69
-20.35
-10.86
-1.89
6.18
13.15
18.83
23.10
25.82
26.98
26.72
25.34
23.25
20.83
18.49
16.46
14.81
13.46
12.31
11.33
10.60
10.36
10.72
11.62
12.69
13.38
13.11
11.58
8.81
5.11
1.04
-2.96
-6.60
-9.92
-13.17
-16.78
-21.16
-26.48
-32.66
-39.09
-44.87
-48.95
-50.40
-48.69
-43.88
-36.54
-27.54
-17.98
-8.76
-0.61
6.06
11.15
14.75
17.07
18.36
18.87
18.73
18.15
17.28
16.31
15.49
14.94
14.65
14.48
14.24
13.77
13.17
12.73
12.68
13.13
13.78
14.04
13.29
11.14
7.63
3.23
-1.45
-5.93
-10.01
-13.90
-17.88
-22.19
-27.00
-32.21
-37.44
-42.14
-45.48
-46.54
-44.67
-39.64
-31.80
-22.08
-11.65
-1.61
7.23
14.46
20.04
24.02
26.54
27.73
27.75
26.84
25.28
23.38
21.38
19.43
17.60
15.93
14.40
13.03
11.87
10.99
10.43
10.13
9.91
9.46
8.47
6.60
3.82
0.41
-3.20
-6.54
-9.39
-11.76
-13.96
-16.39
-19.48
-23.45
-28.21
-33.38
-38.23
-41.78
-43.00
-41.12
-35.84
-27.62
-17.41
-6.50
3.82
12.65
19.52
24.35
27.32
28.69
28.71
27.65
25.79
23.42
20.88
18.50
16.44
14.83
13.73
13.21
13.34
14.16
15.55
17.25
18.82
19.70
19.44
17.82
14.83
10.76
6.06
1.23
-3.28
-7.33
-11.04
-14.67
-18.59
-23.09
-28.10
-33.23
-37.69
-40.51
-40.86
-38.33
-33.02
-25.54
-16.86
-7.93
0.51
7.98
14.26
19.24
22.78
24.75
25.14
24.10
22.03
19.50
17.02
14.99
13.54
12.67
12.29
12.31
12.70
13.35
14.06
14.52
14.46
13.67
12.14
9.96
7.26
4.09
0.51
-3.38
-7.36
-11.17
-14.62
-17.78
-20.97
-24.63
-29.05
-34.05
-38.91
-42.52
-43.75
-41.86
-36.78
-29.11
-19.84
-10.06
-0.64
7.86
15.19
21.26
26.02
29.39
31.29
31.83
31.20
29.74
27.85
25.88
24.15
22.80
21.89
21.42
21.36
21.59
21.97
22.36
22.66
22.83
22.79
22.38
21.32
19.34
16.17
11.84
6.73
1.35
-3.69
-8.04
-11.68
-14.93
-18.22
-21.97
-26.50
-31.76
-37.51
-43.02
-47.32
-49.30
-48.08
-43.30
-35.38
-25.31
-14.36
-3.79
5.59
13.43
19.67
24.45
27.89
30.08
31.23
31.61
31.53
31.33
31.22
31.27
31.49
31.81
32.14
32.45
32.77
33.14
33.58
34.02
34.27
34.07
33.14
31.29
28.53
25.11
21.39
17.75
14.43
11.41
8.57
5.65
2.45
-1.15
-5.11
-9.25
-13.28
-16.98
-20.27
-23.20
-25.97
-28.89
-32.32
-36.51
-41.41
-46.52
-51.00
-53.77
-53.82
-50.61
-44.20
-35.24
-24.81
-13.96
-3.63
5.59
13.33
19.39
23.70
26.29
27.43
27.45
26.80
25.81
24.76
23.72
22.78
21.98
21.41
21.17
21.29
21.68
22.16
22.48
22.41
21.85
20.79
19.35
17.67
15.75
13.60
11.15
8.37
5.33
2.12
-1.15
-4.35
-7.44
-10.40
-13.20
-15.81
-18.24
-20.63
-23.22
-26.32
-30.09
-34.38
-38.62
-42.01
-43.67
-43.01
-39.85
-34.47
-27.45
-19.50
-11.25
-3.29
3.84
9.67
13.83
16.19
16.98
16.60
15.58
14.37
13.26
12.35
11.61
11.01
10.55
10.32
10.36
10.71
11.34
12.19
13.19
14.20
15.05
15.49
15.31
14.29
12.37
9.71
6.55
3.23
0.02
-2.89
-5.50
-7.89
-10.26
-12.87
-15.90
-19.48
-23.44
-27.32
-30.34
-31.68
-30.64
-27.01
-21.08
-13.57
-5.39
2.66
9.95
16.17
21.07
24.50
26.32
26.53
25.25
22.86
19.95
17.14
14.97
13.69
13.29
13.49
13.94
14.41
14.85
15.38
16.13
17.03
17.75
17.91
17.15
15.30
12.47
8.98
5.19
1.40
-2.19
-5.46
-8.44
-11.32
-14.52
-18.61
-24.01
-30.84
-38.75
-46.95
-54.47
-60.46
-64.40
-66.12
-65.71
-63.35
-59.12
-52.92
-44.57
-34.05
-21.61
-7.94
5.98
19.16
30.85
40.82
49.36
57.05
64.34
71.45
78.22
84.35
89.58
93.64
96.19
96.72
94.59
89.18
80.16
67.62
52.12
34.46
15.55
-3.78
-22.51
-39.41
-53.11
-62.42
-66.87
-67.12
-64.97
-62.78
-62.75
-66.16
-72.85
-81.42
-89.85
-96.27
-99.62
-99.76
-97.35
-93.31
-88.51
-83.56
-78.74
-74.09
-69.44
-64.53
-59.06
-52.82
-45.85
-38.52
-31.47
-25.38
-20.68
-17.38
-15.04
-13.02
-10.65
-7.53
-3.47
1.53
7.36
13.73
20.31
26.51
31.73
35.43
37.18
36.79
34.30
29.88
23.77
16.31
7.89
-1.02
-9.93
-18.31
-25.65
-31.43
-35.14
-36.40
-34.93
-30.54
-23.07
-12.38
1.34
17.21
33.40
47.33
56.32
58.61
54.07
44.31
32.03
19.86
9.39
0.70
-7.26
-15.77
-25.32
-35.29
-44.03
-49.71
-51.18
-48.60
-43.64
-39.02
-37.78
-42.41
-54.20
-72.40
-93.77
-112.62
-121.84
-114.98
-88.72
-44.62
10.91
68.63
119.70
158.52
183.77
197.53
203.13
203.03
198.08
188.22
173.66
155.83
137.15
120.02
105.79
94.24
84.15
74.05
63.22
52.05
41.66
33.22
27.21
23.19
19.98
16.28
11.22
4.74
-2.50
-9.43
-15.13
-19.11
-21.50
-22.98
-24.41
-26.57
-29.87
-34.28
-39.45
-44.89
-50.13
-54.83
-58.72
-61.48
-62.80
-62.28
-59.64
-54.87
-48.28
-40.49
-32.28
-24.42
-17.41
-11.54
-6.84
-3.24
-0.67
0.88
1.37
0.76
-0.84
-3.08
-5.50
-7.60
-9.00
-9.55
-9.36
-8.69
-7.95
-7.51
-7.61
-8.32
-9.47
-10.85
-12.20
-13.42
-14.64
-16.19
-18.49
-21.88
-26.40
-31.80
-37.41
-42.25
-45.31
-45.80
-43.28
-37.94
-30.46
-21.84
-13.10
-5.04
1.94
7.67
12.22
15.67
18.13
19.69
20.43
20.51
20.00
19.01
17.54
15.68
13.66
11.85
10.74
10.66
11.66
13.36
15.11
16.11
15.85
14.15
11.23
7.48
3.30
-1.15
-5.89
-10.99
-16.51
-22.33
-28.22
-33.82
-38.68
-42.21
-43.81
-42.97
-39.32
-32.89
-24.17
-14.04
-3.61
6.11
14.41
21.02
25.98
29.48
31.74
32.91
33.10
32.41
31.13
29.56
28.09
26.97
26.33
26.11
26.13
26.19
26.11
25.79
25.16
24.18
22.79
20.85
18.23
14.88
10.96
6.76
2.65
-1.09
-4.42
-7.54
-10.88
-14.86
-19.76
-25.55
-31.87
-38.03
-43.16
-46.42
-47.09
-44.77
-39.46
-31.67
-22.27
-12.30
-2.77
5.62
12.47
17.64
21.16
23.17
23.97
24.11
24.25
24.93
26.43
28.58
30.85
32.68
33.74
34.11
34.14
34.17
34.27
34.26
33.79
32.65
30.85
28.66
26.47
24.48
22.66
20.67
18.13
14.70
10.35
5.33
-0.01
-5.29
-10.28
-14.89
-19.20
-23.34
-27.49
-31.79
-36.30
-40.96
-45.40
-48.86
-50.39
-49.13
-44.70
-37.37
-28.04
-17.89
-8.08
0.64
8.00
14.02
18.84
22.51
24.94
26.07
26.03
25.16
24.00
23.02
22.48
22.40
22.56
22.74
22.79
22.81
23.06
23.84
25.32
27.44
29.84
31.88
32.85
32.22
29.82
26.04
21.71
17.77
14.96
13.43
12.79
12.30
11.16
8.85
5.31
1.13
-2.51
-3.89
-1.27
6.52
19.43
35.86
53.04
67.87
78.21
83.52
85.02
84.89
85.21
86.97
89.93
92.96
94.92
95.29
94.40
93.28
93.02
94.38
97.31
101.06
104.32
105.62
103.65
97.44
86.48
70.64
50.31
26.37
0.21
-26.32
-51.19
-72.53
-89.13
-100.74
-108.08
-112.57
-115.82
-119.04
-122.82
-127.06
-131.14
-134.30
-135.81
-135.12
-131.89
-125.94
-117.26
-106.07
-92.81
-78.10
-62.66
-47.23
-32.47
-18.96
-7.23
2.37
9.69
14.84
18.17
20.10
21.13
21.57
21.64
21.44
21.04
20.50
19.90
19.27
18.56
17.68
16.49
14.85
12.72
10.22
7.47
4.63
1.72
-1.34
-4.72
-8.61
-13.08
-18.02
-23.16
-28.28
-33.21
-37.95
-42.73
-47.88
-53.67
-60.00
-66.30
-71.47
-74.25
-73.45
-68.41
-59.17
-46.51
-31.67
-16.09
-1.22
11.77
21.91
28.65
31.89
31.96
29.64
25.86
21.51
17.29
13.65
10.80
8.85
7.86
7.84
8.89
11.07
14.36
18.55
23.14
27.31
29.95
30.01
26.82
20.29
11.00
-0.01
-11.62
-22.88
-33.22
-42.36
-50.14
-56.49
-61.36
-64.85
-67.32
-69.33
-71.41
-73.69
-75.73
-76.61
-75.26
-70.93
-63.57
-53.84
-42.91
-31.93
-21.72
-12.60
-4.42
3.12
10.20
16.87
22.95
28.21
32.53
35.86
38.26
39.83
40.67
40.78
40.25
39.23
38.04
37.07
36.66
36.99
37.92
39.10
39.95
39.91
38.55
35.67
31.38
25.94
19.81
13.43
7.17
1.26
-4.21
-9.32
-14.18
-18.87
-23.37
-27.46
-30.73
-32.56
-32.27
-29.31
-23.56
-15.52
-6.23
2.99
10.91
16.77
20.46
22.38
23.16
23.38
23.35
23.11
22.57
21.61
20.20
18.38
16.25
13.91
11.53
9.37
7.75
6.89
6.82
7.33
8.03
8.39
7.98
6.57
4.19
1.08
-2.39
-5.81
-8.94
-11.67
-14.18
-16.79
-19.94
-23.86
-28.43
-33.09
-36.94
-39.03
-38.69
-35.73
-30.48
-23.76
-16.52
-9.69
-3.87
0.63
3.72
5.34
5.41
3.84
0.60
-4.05
-9.54
-15.15
-20.21
-24.45
-28.00
-31.36
-34.97
-39.00
-43.22
-47.10
-50.23
-52.62
-54.78
-57.65
-62.19
-68.98
-77.95
-88.34
-98.98
-108.69
-116.69
-122.74
-127.12
-130.35
-132.90
-135.04
-136.56
-136.72
-134.04
-126.21
-110.45
-84.42
-47.28
-0.65
51.21
102.46
147.28
181.49
203.57
214.41
216.29
211.81
203.13
191.81
179.17
166.49
155.02
145.68
138.71
133.61
129.46
125.13
119.82
113.23
105.52
97.29
89.24
81.93
75.46
69.56
63.59
56.87
48.98
39.88
29.98
19.89
10.34
1.88
-5.03
-10.05
-12.93
-13.59
-12.08
-8.63
-3.80
1.75
7.25
11.99
15.51
17.62
18.40
18.14
17.19
15.77
14.01
11.99
9.78
7.58
5.63
4.19
3.40
3.31
3.85
4.97
6.62
8.69
10.95
12.95
14.14
14.05
12.50
9.67
6.08
2.27
-1.46
-5.12
-9.03
-13.52
-18.78
-24.62
-30.49
-35.58
-39.11
-40.56
-39.72
-36.82
-32.36
-26.96
-21.19
-15.54
-10.25
-5.54
-1.63
1.26
3.00
3.57
3.20
2.32
1.32
0.56
0.15
0.01
-0.02
-0.10
-0.24
-0.40
-0.48
-0.39
-0.18
0.07
0.11
-0.19
-1.05
-2.50
-4.50
-6.93
-9.55
-12.14
-14.46
-16.47
-18.13
-19.65
-21.33
-23.54
-26.52
-30.28
-34.45
-38.31
-41.00
-41.71
-40.00
-35.88
-29.80
-22.61
-15.26
-8.57
-3.03
1.22
4.32
6.59
8.26
9.41
9.91
9.57
8.32
6.26
3.81
1.41
-0.52
-1.81
-2.45
-2.68
-2.69
-2.63
-2.50
-2.26
-1.92
-1.61
-1.61
-2.17
-3.43
-5.39
-7.83
-10.49
-13.14
-15.62
-17.90
-20.03
-22.10
-24.20
-26.47
-29.11
-32.32
-36.14
-40.34
-44.32
-47.16
-47.94
-45.95
-41.07
-33.80
-25.13
-16.20
-7.97
-0.95
4.68
9.00
12.10
14.01
14.75
14.36
13.06
11.19
9.18
7.40
6.09
5.29
4.86
4.58
4.24
3.75
3.18
2.75
2.61
2.69
2.76
2.43
1.41
-0.39
-2.78
-5.41
-7.90
-10.03
-11.77
-13.29
-14.84
-16.60
-18.70
-21.16
-23.91
-26.69
-29.09
-30.58
-30.57
-28.71
-24.99
-19.79
-13.76
-7.64
-1.99
2.88
6.92
10.18
12.74
14.60
15.70
16.11
15.96
15.47
14.89
14.36
13.96
13.66
13.37
13.04
12.75
12.65
12.85
13.39
14.13
14.77
14.91
14.20
12.48
9.85
6.57
2.94
-0.78
-4.45
-8.07
-11.71
-15.51
-19.59
-24.02
-28.74
-33.45
-37.62
-40.58
-41.62
-40.29
-36.46
-30.48
-22.99
-14.85
-6.77
0.67
7.09
12.25
16.10
18.69
20.15
20.66
20.43
19.70
18.66
17.44
16.14
14.84
13.68
12.76
12.22
12.04
12.25
12.74
13.38
13.98
14.32
14.22
13.42
11.77
9.22
5.83
1.90
-2.26
-6.31
-10.03
-13.45
-16.85
-20.52
-24.73
-29.52
-34.62
-39.51
-43.48
-45.80
-45.87
-43.35
-38.28
-31.10
-22.57
-13.58
-4.98
2.66
9.00
14.01
17.80
20.50
22.22
23.03
23.03
22.44
21.52
20.54
19.67
18.90
18.13
17.25
16.25
15.31
14.72
14.67
15.15
15.88
16.45
16.44
15.60
13.81
11.13
7.67
3.63
-0.76
-5.26
-9.56
-13.46
-16.88
-20.06
-23.39
-27.29
-32.00
-37.27
-42.42
-46.36
-47.99
-46.50
-41.72
-34.10
-24.67
-14.53
-4.66
4.25
11.86
18.00
22.58
25.57
27.07
27.28
26.57
25.37
24.01
22.78
21.80
21.14
20.79
20.75
20.98
21.35
21.79
22.15
22.43
22.52
22.36
21.85
20.88
19.36
17.18
14.31
10.75
6.67
2.19
-2.46
-7.03
-11.34
-15.36
-19.10
-22.75
-26.56
-30.70
-35.31
-40.26
-45.08
-48.95
-50.88
-50.03
-46.01
-39.10
-30.11
-20.18
-10.38
-1.46
6.17
12.38
17.20
20.66
22.79
23.73
23.67
22.94
21.83
20.64
19.59
18.74
18.12
17.60
17.18
16.81
16.55
16.46
16.57
16.86
17.13
17.16
16.68
15.55
13.66
11.11
8.03
4.64
1.12
-2.42
-5.95
-9.60
-13.44
-17.65
-22.25
-27.20
-32.28
-37.02
-40.77
-42.72
-42.26
-39.08
-33.41
-25.88
-17.39
-8.81
-0.76
6.44
12.64
17.67
21.34
23.51
24.22
23.73
22.56
21.28
20.33
19.98
20.18
20.77
21.41
21.90
22.06
21.91
21.57
21.14
20.72
20.27
19.66
18.69
17.18
14.92
11.91
8.21
4.00
-0.42
-4.75
-8.71
-12.19
-15.24
-18.17
-21.21
-24.49
-27.77
-30.40
-31.50
-30.17
-25.91
-18.74
-9.42
1.02
11.44
21.03
29.37
36.37
42.17
46.96
51.02
54.72
58.60
63.31
69.37
77.05
86.09
95.92
105.59
114.29
121.39
126.61
129.93
131.30
130.59
127.41
121.34
112.12
99.89
85.30
69.41
53.34
38.02
24.03
11.50
0.37
-9.70
-19.07
-28.07
-36.86
-45.26
-52.59
-57.75
-59.59
-57.36
-51.18
-41.97
-31.26
-20.66
-11.31
-3.77
1.83
5.49
7.11
6.54
3.75
-0.94
-6.93
-13.46
-19.93
-26.01
-31.47
-35.86
-38.41
-38.35
-35.53
-30.93
-26.74
-25.66
-29.78
-39.41
-52.88
-67.00
-78.46
-85.05
-86.34
-83.53
-78.58
-73.31
-68.72
-65.06
-62.25
-60.23
-59.24
-59.56
-61.16
-63.25
-64.32
-62.67
-57.02
-47.14
-33.90
-19.01
-4.28
8.94
20.13
29.49
37.58
44.98
52.03
58.75
64.91
70.24
74.47
77.39
78.89
79.04
78.03
76.10
73.51
70.36
66.81
62.96
58.94
54.76
50.23
44.80
37.72
28.28
16.18
1.76
-14.03
-29.87
-44.52
-56.91
-66.48
-72.98
-76.35
-76.94
-75.54
-73.61
-73.01
-75.57
-82.16
-92.23
-103.79
-113.91
-119.79
-119.63
-113.07
-100.93
-84.56
-65.12
-43.35
-19.69
5.32
30.52
54.11
73.87
87.73
94.36
93.69
86.85
76.04
63.73
51.96
41.94
33.97
27.83
23.28
20.45
19.69
21.29
25.02
29.94
34.72
38.25
40.09
40.54
40.33
39.85
38.88
36.56
31.80
23.90
12.95
-0.14
-13.89
-26.47
-35.93
-40.45
-38.59
-29.67
-14.05
6.70
29.75
51.44
67.82
75.42
72.18
58.01
34.97
6.95
-21.47
-46.25
-64.98
-77.09
-83.55
-86.03
-86.09
-84.97
-83.56
-82.64
-82.86
-84.59
-87.59
-91.10
-94.06
-95.49
-95.03
-92.93
-89.81
-86.32
-82.68
-78.71
-73.94
-68.14
-61.42
-54.51
-48.34
-43.78
-41.29
-40.75
-41.47
-42.42
-42.46
-40.52
-35.93
-28.61
-19.08
-8.43
2.10
11.41
18.88
24.39
28.25
30.85
32.50
33.29
33.25
32.57
31.55
30.60
30.01
29.87
30.11
30.56
31.14
31.85
32.81
34.11
35.69
37.28
38.55
39.19
38.99
37.94
36.21
34.13
32.04
30.29
29.06
28.34
27.88
27.29
26.19
24.38
21.99
19.44
17.50
16.95
18.42
22.10
27.65
34.37
41.25
47.35
51.96
54.70
55.44
54.30
51.47
47.16
41.63
35.19
28.21
21.11
14.32
8.17
2.85
-1.62
-5.32
-8.44
-11.07
-13.19
-14.74
-15.67
-16.05
-16.20
-16.51
-17.36
-18.93
-21.13
-23.60
-25.93
-27.78
-28.94
-29.55
-29.84
-30.06
-30.29
-30.46
-30.27
-29.35
-27.19
-23.34
-17.36
-8.97
1.89
14.78
28.70
42.24
53.80
62.22
66.89
67.97
66.11
62.16
56.87
50.69
43.78
36.15
27.65
18.22
7.83
-3.32
-14.86
-26.20
-36.69
-45.86
-53.48
-59.60
-64.46
-68.30
-71.30
-73.61
-75.38
-76.77
-77.93
-78.88
-79.41
-79.14
-77.65
-74.61
-69.97
-64.03
-57.34
-50.55
-44.28
-38.98
-34.96
-32.30
-30.95
-30.47
-30.17
-29.10
-26.23
-20.79
-12.54
-1.93
10.05
22.09
33.03
42.13
49.14
54.17
57.57
59.68
60.75
60.99
60.62
59.94
59.33
59.07
59.30
59.92
60.78
61.71
62.74
64.08
65.93
68.44
71.47
74.65
77.44
79.48
80.68
81.29
81.82
82.74
84.31
86.38
88.62
90.59
92.02
92.97
93.72
94.59
95.67
96.79
97.48
97.24
95.69
92.73
88.56
83.45
77.61
70.97
63.28
54.22
43.49
31.03
17.08
2.22
-12.40
-25.08
-33.77
-36.43
-31.94
-20.76
-5.47
9.62
19.58
20.42
10.48
-9.13
-35.09
-63.17
-89.72
-112.49
-130.77
-144.66
-154.52
-160.58
-163.06
-162.38
-159.37
-155.04
-150.28
-145.62
-141.38
-137.78
-135.16
-133.88
-133.92
-134.71
-135.04
-133.49
-128.94
-121.25
-111.22
-100.24
-89.80
-80.79
-73.54
-67.68
-62.53
-57.25
-51.14
-43.55
-34.09
-22.84
-10.48
1.50
11.33
17.36
18.75
15.73
9.68
2.68
-3.07
-5.68
-4.16
1.61
10.87
22.48
35.28
48.67
62.65
77.45
93.19
109.25
124.12
135.74
142.18
142.36
136.49
125.99
113.04
99.98
88.66
80.09
74.41
70.89
68.28
65.02
59.57
50.65
37.67
21.00
2.16
-16.34
-31.62
-41.29
-44.65
-43.24
-40.69
-41.61
-49.87
-67.02
-91.79
-120.58
-148.58
-170.97
-183.73
-183.97
-170.39
-143.67
-106.75
-64.73
-23.81
10.23
33.68
45.51
47.21
41.52
31.26
18.63
5.23
-7.66
-18.70
-26.68
-30.72
-30.52
-26.43
-19.31
-10.33
-0.70
8.58
16.80
23.58
28.89
32.79
35.33
36.42
36.01
34.25
31.53
28.39
25.27
22.32
19.36
15.89
11.35
5.50
-1.48
-8.99
-16.14
-22.02
-26.04
-28.06
-28.48
-28.13
-27.82
-28.14
-29.22
-30.80
-32.39
-33.73
-34.79
-35.87
-37.36
-39.43
-41.84
-43.77
-44.06
-41.51
-35.33
-25.51
-12.82
1.24
14.94
26.82
36.02
42.39
46.25
48.10
48.38
47.39
45.26
42.14
38.29
34.12
30.09
26.67
24.18
22.84
22.78
23.88
25.92
28.48
30.99
32.88
33.66
33.12
31.36
28.83
26.17
24.10
23.12
23.41
24.62
26.16
27.16
26.93
25.27
22.53
19.70
18.10
18.90
22.68
29.21
37.45
45.87
53.01
57.75
59.64
58.77
55.56
50.41
43.63
35.34
25.61
14.75
3.30
-7.89
-17.90
-25.92
-31.56
-34.84
-36.13
-35.95
-34.70
-32.68
-29.96
-26.64
-22.86
-18.91
-15.13
-11.81
-9.06
-6.76
-4.73
-2.84
-1.15
0.13
0.72
0.72
0.73
1.87
5.43
12.27
22.33
34.51
46.94
57.59
65.00
68.60
68.75
66.32
62.31
57.50
52.28
46.68
40.47
33.35
25.17
16.25
7.43
-0.05
-5.01
-6.93
-6.31
-4.77
-4.45
-7.34
-14.52
-25.80
-39.77
-54.12
-66.15
-73.18
-73.25
-65.61
-51.31
-33.13
-15.15
-1.44
5.14
3.97
-3.17
-12.98
-22.06
-28.14
-30.55
-30.05
-27.86
-24.93
-21.69
-18.14
-14.42
-10.96
-8.30
-6.52
-5.00
-2.46
2.38
10.08
20.05
30.56
39.38
44.52
44.69
39.46
29.22
14.82
-2.60
-21.70
-41.20
-60.09
-77.74
-93.86
-108.13
-119.72
-127.28
-129.18
-124.12
-111.90
-93.67
-71.75
-48.98
-27.99
-10.70
1.78
9.03
11.10
8.49
2.15
-6.58
-15.94
-24.14
-29.63
-31.54
-29.73
-24.90
-18.19
-10.75
-3.48
3.18
9.11
14.37
18.93
22.67
25.43
27.22
28.29
28.97
29.56
30.06
30.44
30.68
31.15
32.65
36.10
42.21
51.01
61.79
73.07
83.20
90.78
94.88
95.13
91.59
84.46
74.06
60.97
45.93
29.95
14.09
-0.90
-14.65
-27.13
-38.44
-48.37
-56.19
-60.85
-61.24
-56.70
-47.32
-34.07
-18.63
-3.04
10.72
21.11
27.22
29.10
27.62
24.34
20.97
18.82
18.44
19.63
21.84
24.42
27.04
29.49
31.48
32.44
31.72
28.90
24.42
19.52
15.91
15.16
17.96
24.01
32.08
40.62
48.22
54.06
57.83
59.57
59.44
57.56
54.56
51.78
51.33
55.37
65.14
79.95
97.03
112.45
122.41
124.53
118.35
104.89
85.83
62.83
37.43
11.25
-13.63
-34.94
-50.49
-58.95
-60.33
-56.37
-50.44
-47.23
-51.60
-67.11
-94.71
-131.99
-173.71
-213.30
-244.70
-263.76
-268.70
-259.84
-238.77
-208.04
-170.94
-131.48
-94.12
-62.99
-40.91
-28.72
-25.28
-28.06
-34.38
-42.48
-52.02
-63.83
-79.18
-98.63
-121.24
-144.51
-164.84
-178.70
-183.60
-178.59
-164.42
-142.81
-115.91
-85.80
-54.37
-23.29
5.99
32.42
55.60
75.80
93.83
110.57
126.52
141.51
154.87
165.74
173.64
178.59
181.11
181.86
181.44
180.15
177.95
174.62
169.72
162.84
153.64
141.94
127.80
111.54
93.57
74.39
54.47
34.26
14.28
-4.92
-22.58
-37.93
-50.38
-59.73
-66.31
-70.90
-74.52
-77.92
-81.42
-84.57
-86.29
-85.23
-80.20
-70.66
-56.90
-40.05
-21.71
-3.56
13.01
27.29
39.15
48.97
57.22
64.24
70.05
74.36
76.71
76.60
73.72
67.98
59.79
50.00
39.95
31.31
25.70
24.07
26.17
30.33
33.71
33.33
27.03
14.64
-1.90
-19.11
-33.25
-41.76
-43.92
-41.08
-35.82
-30.99
-28.90
-30.89
-37.12
-46.67
-57.59
-67.29
-73.33
-74.14
-69.67
-61.39
-51.59
-42.48
-35.35
-30.48
-27.54
-26.09
-25.86
-26.62
-27.82
-28.30
-26.65
-21.67
-13.16
-2.09
9.36
18.30
21.83
17.79
5.60
-13.43
-36.07
-58.01
-74.83
-83.22
-81.66
-70.51
-51.58
-27.42
-0.77
25.84
50.15
70.27
84.75
92.69
93.83
88.52
77.63
62.44
44.63
26.16
9.20
-4.20
-12.48
-14.85
-11.58
-3.88
6.31
16.93
26.07
32.63
36.39
37.88
38.28
38.96
41.25
46.28
54.73
66.44
80.18
93.41
102.82
105.27
99.05
84.68
64.87
43.40
23.67
7.78
-3.86
-11.63
-15.91
-16.77
-14.23
-8.93
-2.62
2.10
2.81
-1.90
-11.87
-25.59
-41.06
-56.50
-70.64
-82.68
-91.95
-97.68
-99.23
-96.28
-89.08
-78.51
-65.76
-52.11
-38.60
-25.87
-14.21
-3.83
5.10
12.34
17.64
20.96
22.39
22.30
21.34
20.14
19.21
18.79
18.96
19.49
20.24
21.07
21.96
22.84
23.53
23.72
23.09
21.48
18.90
15.71
12.28
8.92
5.74
2.67
-0.47
-3.84
-7.58
-11.86
-16.64
-21.69
-26.37
-29.65
-30.40
-27.80
-21.77
-13.03
-2.89
7.27
16.50
24.50
31.47
37.75
43.47
48.35
51.98
53.97
54.30
53.38
51.86
50.44
49.52
49.22
49.38
49.79
50.19
50.30
49.67
47.70
43.80
37.55
29.08
18.98
8.27
-2.04
-11.12
-18.53
-24.16
-28.00
-30.03
-30.19
-28.54
-25.24
-20.71
-15.47
-10.15
-5.29
-1.32
1.52
3.10
3.41
2.61
0.88
-1.42
-3.87
-5.93
-7.16
-7.16
-5.81
-3.25
0.03
3.37
6.13
7.95
8.92
9.57
10.75
13.19
17.29
22.87
29.25
35.47
40.59
43.86
44.85
43.49
39.96
34.63
28.05
20.65
12.76
4.29
-5.19
-16.13
-28.28
-40.21
-49.30
-52.51
-47.73
-34.92
-16.54
3.38
20.71
32.69
38.60
39.28
36.13
30.16
21.77
11.23
-0.68
-12.40
-22.09
-28.42
-31.22
-31.53
-31.05
-31.29
-32.95
-35.71
-38.58
-40.53
-41.01
-40.26
-39.15
-38.76
-39.78
-42.15
-45.04
-47.17
-47.48
-45.49
-41.64
-37.12
-33.48
-32.08
-33.83
-39.01
-47.33
-58.12
-70.33
-82.56
-93.34
-101.24
-105.27
-105.18
-101.44
-95.07
-87.03
-77.80
-67.16
-54.52
-39.34
-21.69
-2.41
17.45
37.01
56.09
75.04
94.10
112.62
128.89
140.53
145.47
143.03
134.39
122.19
109.59
99.17
92.14
88.33
86.50
84.91
82.03
76.90
69.33
59.88
49.64
39.90
31.78
25.85
22.00
19.47
17.07
13.40
7.23
-2.20
-14.85
-29.67
-44.82
-58.36
-68.83
-75.90
-80.30
-83.31
-85.97
-88.55
-90.45
-90.60
-88.15
-82.78
-74.89
-65.33
-54.96
-44.51
-34.56
-25.54
-17.88
-11.81
-7.05
-2.96
1.52
7.46
15.52
25.56
36.67
47.31
55.82
60.88
61.77
58.61
52.32
44.30
36.03
28.71
22.82
18.20
14.23
10.26
6.02
1.73
-2.16
-5.30
-7.69
-9.73
-11.86
-14.15
-16.09
-16.71
-14.94
-10.22
-2.76
6.54
16.34
25.54
33.65
40.81
47.49
54.18
61.27
69.15
78.35
89.39
102.38
116.69
130.94
143.64
153.77
161.29
166.79
170.69
172.29
169.51
159.51
140.01
110.66
73.77
34.06
-2.64
-30.81
-46.72
-49.40
-41.04
-26.57
-12.53
-5.25
-9.26
-26.10
-54.08
-89.10
-126.08
-160.36
-188.52
-208.68
-220.02
-222.61
-217.11
-204.85
-187.92
-168.90
-150.18
-133.35
-118.75
-105.65
-92.82
-79.35
-65.07
-50.80
-37.79
-27.16
-19.52
-14.74
-12.15
-10.90
-10.25
-9.60
-8.69
-7.28
-5.32
-2.78
0.19
3.32
6.09
7.93
8.45
7.58
6.00
5.04
6.46
11.86
21.89
35.75
51.22
65.31
75.12
78.95
76.66
69.68
60.39
51.17
43.85
39.36
37.79
38.72
41.49
45.47
49.97
54.20
57.20
58.06
56.13
51.39
44.51
36.66
29.10
22.71
17.78
14.02
10.94
8.09
5.24
2.43
-0.32
-3.08
-6.22
-10.12
-15.22
-21.74
-29.52
-38.13
-46.80
-54.63
-60.75
-64.60
-65.98
-65.16
-62.78
-59.64
-56.50
-53.97
-52.49
-52.37
-53.80
-56.80
-61.10
-66.10
-70.84
-74.20
-75.05
-72.51
-66.16
-56.04
-42.69
-27.06
-10.42
5.78
20.06
31.16
38.17
40.68
38.87
33.58
26.10
18.01
10.81
5.65
3.11
3.18
5.46
9.17
13.50
17.66
21.02
23.20
24.08
23.82
22.69
20.99
18.89
16.48
13.76
10.76
7.67
4.70
2.10
-0.03
-1.73
-3.18
-4.62
-6.25
-8.07
-9.82
-10.93
-10.60
-8.09
-2.96
4.69
14.12
24.26
33.87
42.02
48.23
52.43
54.80
55.55
54.87
52.88
49.77
45.85
41.52
37.22
33.33
30.09
27.59
25.77
24.46
23.46
22.54
21.38
19.72
17.28
13.87
9.49
4.33
-1.28
-6.97
-12.41
-17.40
-21.81
-25.64
-28.79
-31.19
-32.88
-33.95
-34.74
-35.61
-37.03
-39.18
-42.03
-45.10
-47.63
-48.74
-47.60
-43.77
-37.16
-28.24
-17.76
-6.70
3.97
13.42
21.10
26.71
30.20
31.68
31.37
29.68
27.01
23.95
21.04
18.70
17.16
16.43
16.27
16.43
16.74
17.09
17.45
17.72
17.73
17.19
15.92
13.80
10.95
7.56
3.89
0.17
-3.47
-6.96
-10.32
-13.60
-16.88
-20.25
-23.78
-27.42
-30.93
-33.85
-35.52
-35.26
-32.55
-27.27
-19.73
-10.72
-1.26
7.63
15.14
20.80
24.46
26.17
26.12
24.54
21.69
17.90
13.57
9.15
5.09
1.75
-0.71
-2.33
-3.23
-3.55
-3.41
-2.87
-1.98
-0.86
0.25
1.00
1.05
0.14
-1.73
-4.39
-7.54
-10.88
-14.28
-17.74
-21.34
-25.16
-29.08
-32.80
-35.74
-37.23
-36.60
-33.48
-27.93
-20.38
-11.60
-2.53
5.95
13.17
18.69
22.41
24.32
24.66
23.73
21.88
19.45
16.73
14.01
11.52
9.42
7.76
6.43
5.33
4.28
3.32
2.53
2.10
2.13
2.46
2.84
2.81
2.01
0.22
-2.50
-5.91
-9.66
-13.38
-16.93
-20.28
-23.75
-27.57
-31.97
-36.71
-41.13
-44.28
-45.11
-42.93
-37.55
-29.49
-19.65
-9.19
0.87
9.76
17.00
22.41
25.93
27.76
28.16
27.56
26.40
25.06
23.80
22.73
21.83
21.00
20.30
19.81
19.68
20.01
20.78
21.88
23.06
23.98
24.32
23.91
22.78
21.09
19.09
17.03
15.01
12.97
10.67
7.76
3.86
-1.23
-7.45
-14.33
-21.11
-26.77
-30.45
-31.55
-30.09
-26.56
-21.94
-17.30
-13.65
-11.69
-11.65
-13.30
-16.09
-19.41
-22.72
-25.74
-28.41
-30.84
-33.12
-35.26
-37.18
-38.62
-39.43
-39.50
-38.79
-37.47
-35.85
-34.42
-33.76
-34.45
-36.78
-40.61
-45.31
-49.90
-53.25
-54.44
-52.91
-48.72
-42.42
-34.87
-27.07
-19.91
-14.07
-9.80
-6.99
-5.02
-3.04
-0.09
4.54
11.15
19.42
28.61
37.69
45.73
52.19
56.82
59.73
61.05
60.91
59.22
56.05
51.59
46.29
40.96
36.40
33.18
31.40
30.75
30.61
30.48
30.17
29.75
29.51
29.52
29.58
29.20
27.85
25.13
21.06
16.01
10.53
5.21
0.42
-3.81
-7.68
-11.55
-15.70
-20.23
-25.06
-29.96
-34.47
-37.98
-39.80
-39.29
-36.07
-30.25
-22.48
-13.81
-5.39
1.92
7.65
11.84
14.81
16.84
18.19
18.92
19.14
18.91
18.40
17.80
17.25
16.85
16.58
16.42
16.31
16.30
16.46
16.82
17.33
17.82
17.92
17.23
15.46
12.63
9.04
5.27
1.88
-0.74
-2.59
-4.01
-5.57
-7.85
-11.21
-15.61
-20.58
-25.32
-28.84
-30.27
-29.13
-25.43
-19.75
-12.99
-6.06
0.25
5.47
9.36
11.96
13.42
13.89
13.55
12.62
11.43
10.29
9.41
8.88
8.64
8.53
8.37
7.99
7.34
6.47
5.45
4.32
3.01
1.40
-0.71
-3.52
-7.18
-11.74
-17.06
-22.96
-29.07
-34.94
-40.26
-44.89
-48.93
-52.70
-56.61
-60.92
-65.52
-69.77
-72.65
-73.13
-70.46
-64.52
-55.87
-45.56
-34.67
-24.06
-14.22
-5.37
2.32
8.66
13.48
16.71
18.54
19.47
20.14
21.02
22.30
23.81
25.22
26.21
26.56
26.27
25.49
24.40
23.17
21.79
20.23
18.35
16.11
13.57
11.04
8.94
7.80
7.89
9.15
11.15
13.12
14.14
13.43
10.53
5.43
-1.32
-8.79
-15.70
-20.69
-22.70
-21.17
-16.17
-8.37
1.13
11.13
20.61
28.81
35.36
40.20
43.43
45.31
46.06
45.81
44.69
42.86
40.53
38.07
35.83
34.13
33.15
32.90
33.22
33.94
34.81
35.56
35.88
35.45
34.05
31.64
28.35
24.47
20.28
15.91
11.39
6.73
1.95
-2.82
-7.31
-11.29
-14.61
-17.32
-19.66
-22.02
-24.82
-28.30
-32.42
-36.81
-40.73
-43.29
-43.60
-41.06
-35.58
-27.55
-17.82
-7.46
2.51
11.34
18.63
24.32
28.50
31.27
32.80
33.30
33.02
32.29
31.36
30.38
29.47
28.61
27.83
27.22
26.89
26.91
27.19
27.53
27.69
27.51
26.87
25.72
24.08
21.90
19.17
15.92
12.22
8.17
3.97
-0.26
-4.42
-8.50
-12.53
-16.51
-20.33
-23.88
-27.06
-29.90
-32.64
-35.60
-38.99
-42.72
-46.20
-48.50
-48.59
-45.77
-39.89
-31.46
-21.42
-10.91
-0.95
7.78
14.92
20.38
24.21
26.56
27.57
27.39
26.28
24.45
22.30
20.14
18.24
16.80
15.92
15.55
15.59
15.79
15.79
15.32
14.21
12.53
10.54
8.53
6.62
4.72
2.52
-0.23
-3.59
-7.36
-11.09
-14.39
-16.98
-18.94
-20.53
-22.20
-24.40
-27.52
-31.80
-37.15
-43.12
-48.78
-52.92
-54.28
-52.00
-45.87
-36.47
-25.04
-12.99
-1.63
8.19
16.09
22.09
26.32
28.90
30.00
29.83
28.74
27.20
25.64
24.34
23.38
22.68
22.09
21.51
20.93
20.43
20.18
20.29
20.74
21.32
21.73
21.52
20.41
18.39
15.72
12.89
10.42
8.54
7.20
6.00
4.36
1.78
-2.02
-6.97
-12.60
-18.10
-22.47
-24.71
-24.12
-20.44
-14.10
-5.96
2.88
11.50
19.35
26.28
32.30
37.31
41.04
43.02
42.92
40.80
37.17
32.86
28.68
25.12
22.15
19.39
16.25
12.15
6.77
0.13
-7.39
-15.12
-22.22
-27.95
-31.86
-33.92
-34.51
-34.22
-33.50
-32.46
-30.79
-27.85
-22.99
-15.78
-6.31
4.87
16.81
28.46
39.05
48.22
56.16
63.24
69.71
75.42
79.83
82.27
82.29
79.86
75.35
69.24
61.92
53.61
44.69
35.88
28.47
24.04
24.08
29.71
41.54
59.57
83.00
109.66
135.56
155.23
162.75
153.74
127.03
85.40
34.67
-18.22
-67.44
-109.37
-142.53
-166.55
-181.25
-186.51
-182.89
-172.33
-158.22
-144.74
-135.50
-132.41
-135.23
-141.93
-149.52
-155.07
-156.18
-151.19
-139.48
-121.48
-98.70
-73.64
-49.00
-27.32
-10.28
1.33
7.66
9.33
7.36
2.96
-2.62
-8.14
-12.71
-15.92
-17.84
-18.75
-18.95
-18.45
-17.14
-15.12
-12.76
-10.88
-10.30
-11.58
-14.62
-18.82
-23.26
-27.11
-30.07
-32.25
-34.16
-36.29
-39.02
-42.44
-46.47
-50.91
-55.49
-59.90
-63.54
-65.66
-65.29
-61.48
-53.55
-41.25
-24.73
-4.56
18.21
42.22
65.64
86.43
102.63
112.87
116.64
114.45
107.62
97.67
86.14
74.29
63.21
53.91
47.32
44.13
44.45
47.67
52.44
56.97
59.50
58.90
54.91
48.32
40.57
33.20
27.16
22.24
17.06
9.56
-2.17
-18.79
-39.24
-60.74
-79.27
-90.49
-90.94
-79.04
-56.14
-26.75
2.37
24.09
33.33
28.92
14.12
-4.96
-21.58
-30.91
-31.17
-23.45
-10.34
5.23
20.82
34.51
44.65
49.89
49.33
42.96
31.65
17.07
1.05
-14.73
-29.03
-41.23
-51.10
-58.71
-64.31
-68.15
-70.35
-70.91
-69.86
-67.35
-63.94
-60.54
-58.19
-57.69
-59.11
-61.61
-63.55
-63.08
-58.80
-50.34
-38.44
-24.74
-11.06
1.10
10.93
18.25
23.33
26.61
28.39
29.05
28.81
28.01
26.92
25.77
24.67
23.71
23.10
23.12
24.15
26.31
29.48
33.17
36.57
38.90
39.62
38.65
36.34
33.32
30.17
27.20
24.30
21.05
16.99
11.81
5.60
-1.09
-7.32
-12.00
-14.00
-12.47
-6.93
2.50
15.18
30.03
46.01
62.30
78.47
94.36
109.85
124.55
137.70
148.07
154.24
154.93
149.35
137.61
120.82
100.85
79.78
59.18
39.60
20.56
1.19
-19.09
-39.86
-59.69
-76.69
-89.43
-97.43
-101.31
-102.14
-100.73
-97.06
-90.41
-79.97
-65.75
-49.12
-32.70
-19.63
-12.44
-12.06
-17.48
-26.16
-34.95
-41.25
-43.63
-42.10
-37.69
-31.93
-26.21
-21.53
-18.37
-16.73
-16.41
-17.04
-18.27
-19.85
-21.57
-23.30
-24.79
-25.82
-26.10
-25.53
-24.13
-22.10
-19.63
-16.80
-13.47
-9.31
-4.10
2.23
9.29
16.50
22.97
28.00
31.14
32.27
31.63
29.59
26.60
22.99
18.96
14.52
9.62
4.09
-2.35
-9.93
-18.60
-27.78
-36.24
-42.19
-43.83
-39.90
-30.29
-16.17
0.34
16.70
30.66
40.81
46.70
48.73
47.78
44.95
41.23
37.31
33.41
29.39
24.94
19.93
14.58
9.42
5.12
2.08
0.27
-0.73
-1.51
-2.52
-3.87
-5.40
-6.93
-8.43
-10.07
-12.16
-14.86
-18.10
-21.64
-25.14
-28.37
-31.23
-33.81
-36.25
-38.74
-41.39
-44.26
-47.34
-50.53
-53.58
-55.91
-56.75
-55.19
-50.52
-42.43
-31.23
-17.72
-3.05
11.68
25.60
38.17
49.09
58.24
65.57
71.07
74.97
77.67
79.75
81.85
84.26
86.83
88.96
89.77
88.54
85.19
80.33
75.16
70.99
68.49
67.47
66.87
65.22
61.36
55.06
47.13
39.10
32.50
28.11
25.58
23.58
20.32
14.32
4.98
-7.14
-20.45
-32.55
-40.67
-42.20
-35.64
-21.56
-3.23
13.86
23.43
20.85
5.27
-19.70
-47.07
-69.16
-80.52
-79.77
-69.45
-54.43
-39.68
-28.52
-22.35
-21.15
-24.46
-31.94
-43.30
-57.86
-74.13
-89.82
-102.28
-109.33
-110.00
-104.76
-95.33
-84.09
-73.36
-64.63
-58.50
-54.60
-52.17
-50.49
-49.12
-48.00
-47.17
-46.49
-45.52
-43.55
-39.81
-33.80
-25.46
-15.17
-3.72
7.92
18.77
28.06
35.30
40.35
43.35
44.73
45.19
45.62
46.99
50.06
55.11
61.59
68.28
73.55
76.10
75.50
72.35
67.91
63.43
59.52
55.86
51.60
45.88
38.22
28.64
17.35
4.72
-8.57
-21.16
-30.82
-34.99
-31.87
-21.53
-6.29
9.95
23.26
30.92
32.07
27.25
17.52
3.83
-12.90
-31.25
-48.93
-62.98
-70.95
-71.85
-66.65
-57.75
-47.85
-38.66
-30.49
-22.56
-13.86
-3.94
6.77
17.11
25.87
32.27
36.32
38.64
40.30
42.40
45.81
51.05
58.09
66.32
74.63
81.63
86.08
87.30
85.42
81.26
75.91
70.21
64.45
58.31
51.11
42.01
30.41
16.08
-0.58
-18.40
-35.43
-49.40
-58.47
-62.14
-61.74
-60.17
-60.72
-65.71
-75.34
-87.70
-99.56
-107.78
-110.44
-107.34
-99.64
-89.06
-77.20
-65.11
-53.41
-42.48
-32.73
-24.60
-18.41
-14.22
-11.74
-10.43
-9.72
-9.26
-9.09
-9.62
-11.33
-14.53
-19.08
-24.46
-29.84
-34.44
-37.71
-39.53
-40.25
-40.48
-40.87
-41.97
-44.06
-47.16
-50.90
-54.56
-57.07
-57.15
-53.55
-45.36
-32.31
-14.89
5.63
27.56
49.16
68.97
86.04
99.91
110.61
118.42
123.78
127.06
128.51
128.27
126.43
123.04
118.25
112.24
105.27
97.70
89.95
82.35
75.10
68.10
60.85
52.72
43.17
32.02
19.53
6.20
-7.39
-20.84
-33.81
-45.98
-56.92
-66.10
-72.99
-77.14
-78.09
-75.45
-69.09
-59.42
-47.60
-35.48
-25.11
-17.99
-14.61
-14.31
-15.74
-17.71
-19.69
-21.95
-25.23
-30.12
-36.65
-44.34
-52.36
-60.02
-66.87
-72.63
-77.18
-80.50
-82.62
-83.73
-84.05
-83.73
-82.84
-81.29
-78.91
-75.65
-71.56
-66.66
-60.75
-53.44
-44.40
-33.84
-22.69
-12.52
-5.02
-1.18
-0.66
-1.64
-1.43
2.64
12.16
27.01
45.62
65.58
84.61
101.32
115.30
126.93
136.81
145.27
152.25
157.42
160.37
160.84
158.65
153.69
145.90
135.44
122.80
108.83
94.80
82.01
71.58
63.98
58.94
55.45
52.09
47.72
41.91
35.24
28.93
24.17
21.40
19.85
17.82
13.41
5.49
-5.66
-18.38
-30.11
-38.49
-42.34
-42.18
-40.12
-39.01
-41.18
-47.35
-55.95
-63.39
-65.02
-56.92
-37.24
-7.07
29.69
67.40
100.11
122.99
133.46
131.70
120.56
104.58
88.37
74.92
64.55
54.96
42.58
24.48
-0.07
-29.17
-59.08
-85.89
-106.98
-121.46
-129.81
-133.15
-132.75
-130.10
-127.01
-125.48
-127.23
-132.89
-141.49
-150.67
-157.55
-159.73
-156.23
-147.58
-135.43
-121.92
-108.99
-97.83
-88.54
-79.94
-69.87
-56.20
-38.17
-17.55
1.43
13.59
15.23
6.05
-10.45
-28.38
-42.30
-49.36
-50.06
-47.03
-42.91
-38.78
-33.86
-26.60
-15.95
-2.29
12.84
27.62
40.85
52.46
63.24
74.15
85.82
98.06
110.00
120.42
128.29
133.16
135.24
135.38
134.57
133.70
133.03
132.27
130.57
127.01
120.92
112.23
101.43
89.48
77.43
66.03
55.61
46.07
37.07
28.27
19.68
11.63
4.70
-0.57
-4.06
-6.10
-7.38
-8.75
-10.93
-14.27
-18.57
-23.18
-27.01
-28.70
-26.90
-20.68
-10.17
3.10
16.07
24.78
25.48
15.87
-3.99
-31.53
-62.60
-92.66
-118.02
-136.55
-147.55
-151.31
-148.48
-139.83
-126.28
-109.27
-90.67
-72.55
-56.70
-44.17
-35.06
-28.70
-24.08
-20.32
-16.94
-13.80
-10.98
-8.54
-6.39
-4.32
-2.06
0.64
3.84
7.61
12.08
17.35
23.52
30.49
37.89
45.07
51.19
55.41
57.11
56.12
52.62
47.16
40.48
33.40
26.60
20.49
15.13
10.10
4.78
-1.45
-8.70
-16.39
-23.31
-27.88
-28.90
-25.88
-19.37
-10.71
-1.66
6.25
11.99
15.19
16.23
16.13
16.37
18.42
23.19
30.50
39.04
46.65
51.13
51.16
46.66
38.72
28.95
18.83
9.23
0.51
-7.23
-13.95
-19.47
-23.77
-27.13
-30.19
-33.59
-37.81
-42.89
-48.40
-53.78
-58.55
-62.65
-66.37
-70.13
-74.13
-77.93
-80.59
-80.77
-77.26
-69.39
-57.35
-42.15
-25.32
-8.45
7.25
21.17
33.42
44.51
55.16
66.01
77.52
89.77
102.49
114.99
126.34
135.51
141.62
144.08
142.72
137.64
129.14
117.57
103.36
87.26
70.49
54.79
42.18
34.35
31.64
32.49
33.26
29.13
15.79
-8.74
-43.02
-82.33
-120.16
-150.37
-168.93
-174.70
-169.11
-154.87
-134.78
-111.15
-85.78
-60.43
-37.03
-17.51
-3.11
6.07
11.31
14.51
17.26
19.95
21.58
20.60
15.94
8.11
-1.02
-8.84
-13.35
-13.97
-11.56
-7.69
-3.84
-0.75
1.55
3.23
4.41
4.99
4.80
3.82
2.32
0.68
-0.71
-1.65
-2.20
-2.69
-3.56
-5.33
-8.38
-12.78
-18.20
-23.96
-29.07
-32.49
-33.33
-31.08
-25.80
-18.04
-8.82
0.65
9.21
16.05
20.78
23.46
24.46
24.13
22.80
20.74
18.17
15.35
12.63
10.27
8.45
7.17
6.24
5.44
4.58
3.64
2.73
2.03
1.56
1.07
0.28
-1.20
-3.58
-6.77
-10.45
-14.19
-17.65
-20.71
-23.54
-26.42
-29.71
-33.70
-38.51
-43.97
-49.59
-54.61
-58.07
-59.07
-57.03
-51.90
-44.12
-34.53
-24.01
-13.23
-2.70
7.26
16.30
24.04
30.06
34.11
36.22
36.67
35.90
34.37
32.42
30.30
28.22
26.34
24.87
23.95
23.56
23.55
23.64
23.47
22.75
21.22
18.79
15.59
11.93
8.19
4.76
1.93
-0.32
-2.28
-4.44
-7.38
-11.52
-16.93
-23.27
-29.75
-35.22
-38.51
-38.70
-35.27
-28.39
-18.83
-7.80
3.39
13.63
22.21
28.82
33.40
36.07
36.88
35.94
33.42
29.68
25.12
20.31
15.74
11.85
9.04
7.55
7.51
8.84
11.18
13.97
16.52
18.16
18.56
17.63
15.49
12.47
8.82
4.81
0.60
-3.68
-8.12
-12.86
-18.17
-24.22
-30.74
-36.95
-41.59
-43.27
-40.94
-34.41
-24.36
-12.25
0.09
11.15
19.91
26.09
29.95
32.09
32.99
33.00
32.24
30.64
28.21
24.98
21.20
17.18
13.28
9.87
7.27
5.66
4.97
4.89
4.89
4.43
3.12
0.87
-2.14
-5.53
-9.02
-12.50
-16.00
-19.78
-24.08
-29.09
-34.79
-40.95
-46.99
-52.02
-55.04
-54.99
-51.31
-43.89
-33.31
-20.61
-7.14
5.77
17.04
25.94
32.21
35.88
37.36
37.13
35.74
33.67
31.25
28.71
26.13
23.49
20.75
17.98
15.41
13.36
12.16
11.89
12.37
13.04
13.27
12.49
10.44
7.29
3.39
-0.75
-4.76
-8.47
-11.97
-15.59
-19.75
-24.76
-30.65
-37.08
-43.21
-47.89
-49.80
-47.93
-41.77
-31.62
-18.52
-3.95
10.50
23.53
34.49
43.27
50.11
55.35
59.23
61.85
63.36
64.02
64.18
64.31
64.74
65.61
66.93
68.65
70.89
73.88
77.84
82.74
88.13
93.10
96.69
98.16
97.33
94.70
91.14
87.52
84.18
80.90
76.79
70.90
62.51
51.43
37.98
22.83
6.71
-9.81
-26.13
-41.57
-55.26
-66.12
-73.23
-75.86
-73.58
-66.15
-53.68
-37.05
-18.51
-1.89
8.01
6.86
-7.30
-32.82
-64.45
-94.99
-117.72
-128.55
-126.95
-115.31
-97.42
-76.83
-56.01
-36.31
-18.57
-3.67
7.33
13.34
13.83
9.32
1.50
-7.29
-14.94
-20.31
-23.76
-26.74
-31.02
-37.65
-46.47
-56.12
-64.81
-71.16
-74.60
-75.47
-74.50
-72.47
-69.81
-66.55
-62.36
-56.77
-49.27
-39.54
-27.73
-14.56
-1.26
10.68
19.77
24.85
25.20
20.64
11.49
-1.38
-16.60
-32.40
-46.85
-58.11
-64.75
-66.13
-62.43
-54.71
-44.64
-34.03
-24.38
-16.27
-9.34
-2.40
5.86
16.33
28.91
42.50
55.35
65.52
71.65
73.13
70.38
64.46
56.98
49.57
43.69
40.46
40.58
44.43
51.99
63.00
76.73
91.97
106.79
118.72
125.28
124.75
117.00
103.75
88.30
74.38
65.01
61.57
63.41
68.45
73.71
76.11
72.93
62.33
43.70
18.15
-11.63
-42.09
-69.84
-92.98
-111.50
-126.84
-140.58
-153.23
-163.81
-170.28
-170.89
-164.97
-153.08
-136.12
-114.30
-86.71
-51.99
-9.85
37.45
84.52
124.20
149.82
158.03
150.15
131.91
111.22
95.36
88.48
90.44
97.57
104.49
106.64
101.84
90.78
76.10
60.60
45.90
31.89
17.44
1.68
-15.04
-31.05
-44.19
-52.96
-57.33
-58.60
-58.39
-57.82
-57.05
-55.61
-53.12
-49.84
-47.02
-46.41
-49.72
-57.79
-70.23
-85.29
-100.19
-111.87
-117.79
-116.71
-109.00
-96.42
-81.50
-66.76
-54.06
-44.32
-37.65
-33.68
-31.90
-31.88
-33.21
-35.60
-38.71
-42.14
-45.50
-48.43
-50.44
-51.02
-49.51
-45.25
-37.60
-26.09
-10.56
8.54
29.86
51.10
69.25
81.25
84.94
79.87
67.45
50.49
32.15
14.97
0.41
-11.11
-19.73
-25.73
-29.17
-30.27
-29.51
-27.77
-26.07
-25.16
-25.41
-26.65
-28.40
-30.09
-31.07
-30.59
-27.84
-21.94
-12.34
0.78
16.42
32.72
47.48
58.69
65.12
66.52
63.51
57.26
49.02
40.01
31.18
23.25
16.75
11.98
9.05
7.68
7.39
7.60
7.92
8.29
8.89
10.10
12.26
15.59
20.31
26.59
34.48
43.80
53.75
62.93
69.70
72.63
70.99
64.94
55.35
43.25
29.54
14.86
-0.15
-14.49
-26.93
-36.42
-42.56
-45.90
-47.76
-49.59
-52.35
-56.10
-60.00
-62.63
-62.53
-58.68
-51.02
-40.78
-30.34
-22.74
-20.61
-25.02
-34.90
-47.27
-58.23
-64.25
-62.79
-52.32
-32.12
-2.05
36.88
81.82
127.81
168.33
196.80
208.24
200.63
175.18
135.89
88.60
39.79
-4.47
-39.69
-63.81
-77.54
-83.85
-86.42
-87.96
-89.00
-88.17
-83.68
-75.21
-64.93
-57.02
-55.64
-62.80
-77.04
-93.93
-107.98
-115.08
-114.05
-106.55
-95.76
-84.42
-73.67
-62.96
-51.16
-37.80
-23.85
-11.51
-3.24
-0.38
-2.29
-6.40
-8.86
-5.85
5.25
25.05
51.88
82.10
110.86
133.52
146.91
150.21
145.22
135.33
124.14
114.16
106.22
99.67
93.46
86.65
78.79
70.07
61.04
52.79
46.86
44.93
47.77
54.56
62.50
67.52
66.04
56.52
40.14
20.06
-0.12
-17.88
-32.10
-42.51
-48.64
-49.27
-43.14
-30.33
-13.29
3.20
13.53
13.69
3.12
-14.95
-34.81
-50.53
-58.25
-57.13
-48.92
-36.67
-23.15
-10.06
2.04
13.28
23.86
33.75
42.82
51.04
58.39
64.81
69.94
72.89
72.46
67.57
57.81
43.75
26.87
9.09
-7.90
-23.07
-36.38
-48.52
-60.59
-73.73
-88.56
-105.09
-122.55
-139.12
-151.87
-157.29
-152.18
-135.04
-107.34
-73.92
-41.84
-18.44
-8.69
-13.66
-30.43
-53.46
-76.66
-95.35
-106.97
-110.96
-107.97
-99.17
-86.05
-70.17
-53.31
-37.20
-23.23
-12.21
-4.04
2.01
7.12
12.20
17.69
23.38
28.67
32.82
35.45
36.78
37.35
37.87
38.78
40.09
41.42
42.26
42.17
41.06
39.22
37.25
36.02
36.36
38.89
43.76
50.64
58.75
67.17
74.99
81.56
86.64
90.43
93.37
95.89
98.09
99.55
99.36
96.40
89.79
79.27
65.25
48.85
31.39
14.22
-1.68
-15.73
-27.80
-38.10
-47.03
-54.98
-62.15
-68.55
-74.11
-78.78
-82.61
-85.83
-88.67
-91.35
-93.95
-96.42
-98.65
-100.45
-101.68
-102.28
-102.22
-101.53
-100.11
-97.67
-93.66
-87.38
-77.99
-64.75
-47.03
-24.53
2.38
32.26
62.20
88.05
105.28
110.41
102.30
82.68
55.69
26.47
-0.33
-21.61
-35.95
-43.21
-43.84
-38.64
-28.78
-16.01
-2.54
9.35
18.04
23.08
25.13
25.55
25.71
26.37
27.40
28.08
27.46
24.84
20.05
13.39
5.56
-2.56
-9.91
-15.27
-17.42
-15.29
-8.26
3.49
18.94
36.35
53.67
68.88
80.48
87.60
90.09
88.43
83.60
76.80
69.32
62.23
56.28
51.92
49.38
48.76
50.07
53.18
57.65
62.84
67.93
72.20
75.30
77.22
78.20
78.53
78.34
77.59
76.15
73.80
70.31
65.49
59.09
51.01
41.41
30.84
20.22
10.64
3.23
-1.23
-2.42
-0.70
2.99
7.33
10.81
11.96
9.61
2.88
-8.75
-25.46
-46.85
-71.79
-98.34
-123.93
-145.88
-161.94
-171.02
-173.23
-169.50
-161.03
-148.78
-133.26
-114.83
-94.23
-72.75
-52.18
-34.37
-20.54
-10.95
-4.98
-1.65
-0.03
0.28
-0.76
-3.73
-9.44
-18.82
-32.58
-50.82
-72.62
-95.93
-117.98
-135.89
-147.78
-153.29
-153.52
-150.53
-146.52
-143.36
-142.27
-144.05
-148.94
-156.64
-166.15
-175.70
-183.17
-186.66
-185.28
-179.42
-170.58
-160.61
-150.95
-142.10
-133.51
-124.21
-113.29
-100.44
-86.10
-71.15
-56.46
-42.70
-30.41
-20.04
-12.24
-7.61
-6.29
-7.59
-9.84
-10.67
-7.92
-0.35
11.93
27.83
45.95
65.24
85.14
105.19
124.40
140.99
152.80
158.14
156.59
149.45
139.18
128.49
119.38
112.60
107.86
104.33
101.23
98.08
94.74
91.20
87.47
83.40
78.89
73.89
68.61
63.44
58.69
54.51
50.63
46.51
41.28
34.27
25.19
14.33
2.59
-8.77
-18.36
-25.17
-28.67
-29.07
-27.05
-23.49
-19.19
-14.73
-10.41
-6.43
-2.96
-0.10
2.11
3.90
5.60
7.57
10.03
12.85
15.67
17.99
19.44
19.90
19.62
19.07
18.76
19.06
20.01
21.29
22.42
23.04
23.08
22.91
23.03
23.85
25.29
26.70
27.17
25.86
22.46
17.21
10.85
4.12
-2.32
-8.04
-12.86
-16.80
-20.12
-23.35
-27.18
-32.03
-37.84
-43.64
-47.85
-48.73
-45.04
-36.46
-23.68
-8.03
9.02
26.17
42.55
57.57
70.77
81.86
90.55
96.74
100.41
101.79
101.34
99.87
98.45
98.21
100.12
104.44
110.76
117.94
124.66
129.86
133.00
134.06
133.41
131.56
129.06
126.61
125.08
125.29
127.54
131.16
134.42
134.99
130.97
121.81
108.80
94.74
82.89
75.91
75.03
79.85
88.80
99.79
110.89
120.75
128.56
133.95
136.86
137.39
135.80
132.56
128.13
122.90
116.98
110.06
101.51
90.69
77.37
61.97
45.51
29.34
14.68
2.26
-7.86
-16.33
-24.26
-32.94
-43.37
-56.01
-70.49
-85.77
-100.43
-113.25
-123.56
-131.46
-137.75
-143.53
-149.86
-157.25
-165.42
-173.04
-177.94
-177.72
-170.66
-156.79
-138.37
-119.60
-105.14
-98.38
-99.95
-107.42
-116.24
-121.65
-120.39
-111.67
-96.80
-78.18
-57.88
-37.00
-15.78
5.90
27.85
49.33
69.32
86.86
101.38
112.61
120.33
124.24
124.09
120.16
113.59
106.35
100.46
96.76
94.08
89.02
77.24
55.28
22.43
-18.61
-62.48
-103.20
-136.25
-159.87
-174.92
-183.58
-187.69
-187.75
-182.97
-172.26
-155.25
-133.04
-107.98
-83.05
-61.04
-43.83
-32.20
-25.88
-23.90
-24.84
-27.16
-29.35
-30.13
-28.60
-24.30
-17.43
-8.64
0.99
10.16
17.67
22.77
25.42
26.33
26.71
27.75
30.15
33.95
38.58
43.24
47.30
50.62
53.56
56.78
60.96
66.60
73.83
82.31
91.29
99.72
106.65
111.50
114.44
116.09
117.28
118.49
119.66
120.30
119.96
118.66
116.76
114.60
111.76
106.93
98.30
84.63
66.25
45.36
25.36
9.48
-0.64
-5.64
-7.99
-10.75
-16.13
-24.71
-35.43
-46.48
-56.17
-63.59
-68.50
-70.98
-70.93
-68.04
-61.99
-52.83
-41.36
-28.99
-17.37
-7.85
-1.10
3.03
5.32
6.78
8.24
10.15
12.52
15.12
17.68
20.10
22.32
24.43
26.45
28.28
29.74
30.60
30.62
29.54
27.30
23.92
19.67
15.06
10.64
6.89
4.01
1.90
0.21
-1.43
-3.28
-5.32
-7.22
-8.51
-8.58
-7.01
-3.54
1.79
8.55
15.94
22.82
27.85
29.60
26.87
18.78
5.06
-13.91
-37.23
-63.53
-91.07
-117.56
-140.35
-156.56
-163.85
-161.39
-150.70
-135.57
-121.18
-112.28
-111.50
-118.43
-130.00
-141.76
-149.60
-151.00
-145.42
-133.79
-117.84
-99.36
-79.98
-61.01
-43.59
-28.65
-16.72
-7.80
-1.30
3.67
8.09
12.64
17.49
22.31
26.37
28.92
29.53
28.22
25.48
22.12
18.92
16.39
14.67
13.37
11.93
9.81
6.72
2.77
-1.56
-5.69
-9.04
-11.12
-11.56
-10.12
-6.72
-1.42
5.56
13.83
22.92
32.36
41.89
51.28
60.36
68.88
76.41
82.54
86.94
89.52
90.50
90.23
88.89
86.32
81.97
75.08
65.19
52.47
37.87
23.08
10.00
0.23
-5.45
-7.25
-6.29
-4.23
-2.69
-2.81
-4.84
-8.21
-11.69
-13.84
-13.47
-10.07
-3.85
4.34
13.24
21.46
27.78
31.30
31.44
28.01
21.05
10.80
-2.26
-17.35
-33.30
-48.49
-60.89
-68.42
-69.41
-63.06
-49.74
-31.08
-9.56
11.88
30.38
43.75
50.67
50.93
45.21
34.78
21.04
5.29
-11.23
-27.14
-40.56
-49.38
-51.84
-47.67
-38.87
-29.43
-24.17
-26.79
-38.28
-56.41
-76.83
-94.89
-107.48
-113.81
-115.07
-113.10
-109.11
-103.11
-94.24
-81.68
-65.44
-46.75
-27.62
-10.12
4.33
15.49
24.14
31.73
39.61
48.58
58.60
68.76
77.65
83.66
85.55
82.72
75.35
64.22
50.49
35.38
20.04
5.39
-7.88
-19.26
-28.59
-35.85
-41.29
-45.06
-47.23
-47.53
-45.51
-40.75
-33.11
-22.95
-10.89
2.39
16.53
31.35
46.61
61.56
74.69
83.98
87.44
83.90
73.39
57.17
37.41
16.94
-1.09
-13.57
-18.03
-13.54
-1.34
15.06
30.78
41.21
43.83
39.05
29.95
20.91
15.91
17.15
24.54
36.16
48.96
59.79
65.92
65.48
57.47
41.76
19.01
-9.31
-40.97
-73.23
-103.22
-128.48
-147.50
-159.93
-166.27
-167.34
-163.77
-155.74
-143.28
-126.79
-107.50
-87.63
-69.94
-56.99
-50.08
-48.72
-50.81
-53.37
-53.83
-51.04
-45.46
-38.35
-30.58
-21.57
-9.43
7.76
30.19
55.34
78.39
93.99
98.48
91.13
74.16
51.32
26.53
2.90
-17.35
-32.43
-41.01
-42.38
-37.24
-27.81
-17.53
-9.87
-7.31
-10.54
-18.44
-28.68
-38.42
-45.15
-47.16
-43.85
-35.72
-23.96
-10.10
4.48
18.84
32.39
44.70
55.41
64.10
70.61
75.05
77.96
80.00
81.72
83.17
83.86
82.94
79.21
71.54
59.07
41.77
20.77
-1.37
-21.19
-35.37
-42.10
-42.11
-38.64
-36.17
-38.61
-47.67
-62.30
-79.56
-96.10
-109.63
-119.41
-125.80
-129.16
-129.16
-124.68
-114.82
-99.69
-80.99
-61.61
-44.52
-31.34
-21.79
-13.87
-4.89
7.10
22.40
39.42
55.37
67.30
73.14
72.20
65.34
54.43
41.78
29.51
19.00
10.82
4.81
0.41
-2.89
-5.23
-6.27
-5.41
-2.02
4.01
12.09
20.91
28.61
33.25
33.39
28.41
18.60
5.09
-10.57
-26.74
-42.02
-55.40
-66.36
-74.81
-80.87
-84.77
-86.57
-86.14
-83.07
-77.02
-67.76
-55.40
-40.26
-22.79
-3.42
17.34
38.76
59.87
79.75
97.69
113.56
127.75
140.92
153.43
165.13
175.15
182.17
184.83
182.08
173.36
158.68
138.50
113.73
85.90
57.07
29.74
6.39
-11.20
-22.38
-27.90
-29.46
-29.03
-28.10
-27.40
-26.91
-26.45
-26.17
-26.61
-28.60
-32.79
-39.39
-48.05
-58.14
-68.92
-79.73
-90.11
-99.71
-108.28
-115.80
-122.43
-128.41
-133.79
-137.87
-138.97
-134.56
-122.06
-99.94
-68.76
-31.55
6.78
40.61
65.30
78.42
80.31
73.74
63.04
52.94
47.42
48.74
56.98
70.17
84.97
97.85
106.27
109.44
108.26
104.62
100.03
94.47
86.12
71.92
49.03
16.41
-24.29
-68.95
-112.15
-148.89
-175.75
-191.38
-196.20
-191.47
-178.64
-159.08
-134.23
-105.79
-75.88
-46.71
-20.14
2.58
21.23
36.32
48.88
59.86
69.71
78.16
84.43
87.62
87.34
84.04
78.95
73.46
68.34
63.29
56.82
47.02
32.42
12.95
-9.61
-32.20
-51.49
-65.04
-72.08
-73.57
-71.48
-67.86
-63.95
-59.70
-54.24
-46.29
-34.86
-19.80
-2.12
16.08
31.84
41.99
44.06
37.20
22.80
4.38
-13.33
-25.76
-29.80
-24.33
-10.08
11.31
38.23
69.81
105.70
145.29
186.73
226.22
258.22
276.65
276.88
257.46
220.98
173.28
121.53
72.05
28.67
-7.36
-36.52
-59.53
-76.54
-87.24
-91.50
-90.22
-85.32
-79.08
-73.01
-66.88
-58.74
-45.84
-25.99
0.98
32.52
63.65
88.21
100.53
97.13
77.70
45.15
4.85
-36.79
-73.87
-102.24
-120.00
-127.30
-125.82
-117.89
-105.97
-92.31
-78.71
-66.62
-56.98
-50.13
-45.88
-43.71
-43.11
-43.95
-46.47
-51.00
-57.40
-64.63
-70.58
-72.43
-67.31
-53.29
-30.18
0.33
35.08
70.33
102.74
129.96
150.78
164.93
172.87
175.44
173.80
169.20
162.68
154.59
144.37
130.72
112.15
88.00
59.02
27.49
-3.36
-30.25
-50.82
-64.03
-70.30
-71.15
-68.77
-65.67
-64.20
-66.14
-72.17
-81.38
-91.38
-98.64
-99.50
-91.21
-72.87
-45.78
-13.36
19.62
48.03
67.39
74.70
69.02
51.64
25.75
-4.22
-33.54
-58.14
-75.36
-84.20
-85.29
-80.40
-71.88
-62.08
-52.72
-44.76
-38.25
-32.54
-26.77
-20.30
-13.02
-5.46
1.51
7.11
10.86
12.78
13.30
12.88
11.86
10.27
7.98
4.91
1.20
-2.89
-6.98
-10.67
-13.63
-15.52
-15.94
-14.48
-10.90
-5.22
2.14
10.66
20.00
30.20
41.73
55.06
70.12
85.93
100.59
111.78
117.65
117.34
111.22
100.67
87.50
73.25
59.04
45.44
32.70
21.01
10.60
1.62
-5.88
-12.08
-17.35
-22.05
-26.42
-30.49
-34.08
-36.98
-39.15
-40.82
-42.54
-44.97
-48.59
-53.44
-59.03
-64.37
-68.36
-70.01
-68.77
-64.56
-57.72
-48.82
-38.48
-27.38
-16.08
-5.19
4.74
13.23
19.98
25.02
28.65
31.31
33.46
35.52
37.72
40.18
43.02
46.29
49.97
54.03
58.25
62.32
65.89
68.59
70.10
70.29
69.22
67.24
64.88
62.72
61.10
59.99
58.94
57.24
54.17
49.15
41.86
32.31
20.75
7.73
-5.93
-19.21
-31.13
-40.92
-48.37
-53.77
-57.82
-61.46
-65.48
-70.50
-76.84
-84.52
-93.36
-103.12
-113.43
-123.83
-133.79
-142.66
-149.86
-155.05
-158.24
-159.78
-160.11
-159.24
-156.23
-149.03
-134.85
-110.95
-76.02
-30.93
20.69
72.88
118.53
151.07
166.03
162.02
140.61
105.45
61.04
11.80
-38.06
-84.14
-121.76
-146.15
-153.47
-142.10
-113.20
-70.55
-19.58
33.90
84.50
127.49
158.96
176.19
178.32
166.93
146.05
121.18
97.84
80.00
69.33
65.41
66.70
71.43
78.27
86.25
94.46
101.65
106.27
106.76
102.13
92.20
77.85
60.71
42.89
26.38
12.60
2.01
-5.93
-12.54
-19.59
-28.70
-40.83
-56.00
-73.21
-90.54
-105.63
-116.24
-120.73
-118.66
-110.80
-98.84
-84.91
-70.86
-57.79
-46.11
-35.68
-26.27
-17.72
-9.92
-2.68
4.23
11.06
17.74
23.79
28.46
30.96
31.00
29.01
26.00
23.12
21.22
20.52
20.59
20.78
20.54
19.74
18.58
17.43
16.44
15.45
14.02
11.67
8.12
3.33
-2.52
-9.12
-16.12
-23.05
-29.19
-33.62
-35.36
-33.69
-28.39
-19.92
-9.27
2.35
13.82
24.39
33.59
41.23
47.22
51.57
54.38
55.84
56.24
55.92
55.20
54.32
53.40
52.46
51.50
50.42
49.02
47.03
44.23
40.47
35.78
30.37
24.52
18.35
11.69
3.96
-5.66
-17.97
-33.35
-51.64
-72.21
-94.23
-116.98
-139.73
-161.68
-181.60
-197.81
-208.50
-212.35
-209.08
-199.73
-186.22
-170.83
-155.36
-140.88
-127.77
-115.96
-105.41
-96.11
-88.12
-81.14
-74.51
-67.12
-57.84
-45.86
-31.00
-13.90
4.25
21.94
37.82
50.93
60.91
67.81
71.93
73.65
73.28
71.26
68.07
64.46
61.24
59.21
58.83
59.96
61.91
63.60
63.97
62.41
58.99
54.45
50.04
47.11
46.80
49.93
56.79
67.29
81.00
97.16
114.91
133.47
152.24
170.70
187.88
201.99
210.54
211.10
202.36
185.11
162.59
139.45
120.08
106.96
99.65
95.45
90.89
83.46
72.69
60.08
47.97
38.12
31.02
25.79
20.97
15.31
8.06
-1.08
-12.23
-25.30
-39.57
-53.23
-63.70
-68.64
-67.39
-61.77
-55.65
-53.33
-57.51
-68.03
-82.26
-96.53
-107.95
-115.41
-119.36
-120.79
-120.11
-116.76
-109.54
-97.42
-80.41
-59.84
-38.06
-17.92
-2.05
7.79
10.99
8.06
0.35
-10.36
-22.21
-33.46
-42.63
-48.73
-51.30
-50.68
-47.94
-44.57
-42.11
-41.71
-43.64
-47.29
-51.39
-54.42
-55.33
-53.81
-50.47
-46.60
-43.73
-43.00
-44.79
-48.66
-53.58
-58.26
-61.59
-62.56
-60.42
-54.56
-44.70
-31.10
-14.68
3.12
20.70
36.64
50.10
60.80
68.82
74.33
77.39
78.00
76.24
72.53
67.61
62.52
58.24
55.45
54.32
54.63
55.84
57.43
59.09
60.69
62.30
64.08
66.01
67.94
69.56
70.49
70.46
69.45
67.67
65.45
63.16
61.13
59.51
58.27
57.19
55.99
54.52
52.86
51.52
51.37
53.38
58.15
65.53
74.53
83.55
91.05
96.04
98.52
99.55
100.66
103.19
107.73
113.71
119.44
122.64
121.03
112.89
97.48
75.29
47.88
17.50
-13.60
-43.85
-72.83
-101.18
-129.84
-158.98
-187.12
-211.16
-227.24
-232.31
-225.45
-208.39
-185.02
-160.20
-138.41
-122.87
-115.15
-115.24
-121.85
-132.73
-144.96
-155.44
-161.28
-160.30
-151.32
-134.37
-110.51
-81.86
-51.25
-21.65
4.24
24.69
39.00
47.51
51.12
50.88
47.78
42.72
36.78
31.23
27.41
26.27
28.10
32.21
37.24
41.57
43.88
43.57
40.74
36.02
30.08
23.52
16.68
9.83
3.19
-2.96
-8.41
-13.16
-17.39
-21.50
-25.91
-30.92
-36.57
-42.68
-48.72
-54.02
-57.80
-59.23
-57.68
-52.87
-44.97
-34.57
-22.58
-9.96
2.34
13.52
22.91
30.04
34.66
36.83
36.99
35.77
33.87
31.74
29.47
26.76
23.11
18.01
11.28
2.99
-6.35
-15.86
-24.35
-30.44
-32.94
-31.42
-26.57
-20.31
-15.30
-14.19
-18.83
-29.69
-45.98
-66.01
-87.78
-109.55
-129.94
-147.95
-162.73
-173.45
-179.05
-178.38
-170.20
-153.49
-127.85
-93.58
-51.82
-4.49
45.82
95.81
141.44
178.31
202.24
210.32
201.88
178.94
145.90
108.51
72.38
41.66
18.52
3.28
-5.10
-8.04
-6.86
-2.52
4.33
13.20
23.35
33.92
43.95
52.72
59.85
65.49
69.95
73.49
76.06
77.05
75.68
71.18
63.32
52.55
39.94
26.84
14.59
4.28
-3.42
-8.21
-10.17
-9.62
-7.03
-3.02
1.66
6.36
10.51
13.73
15.89
17.00
17.14
16.46
15.02
12.82
9.83
6.14
1.95
-2.34
-6.26
-9.50
-11.86
-13.37
-14.17
-14.55
-14.80
-15.26
-16.20
-17.78
-19.88
-22.03
-23.51
-23.49
-21.39
-17.09
-11.05
-4.16
2.45
7.68
10.73
11.25
9.46
6.09
2.13
-1.50
-4.26
-6.23
-7.96
-10.26
-13.75
-18.67
-24.81
-31.64
-38.72
-45.70
-52.49
-59.11
-65.47
-71.27
-75.91
-78.57
-78.46
-75.08
-68.47
-59.34
-48.89
-38.51
-29.35
-22.12
-16.79
-12.94
-9.93
-7.25
-4.67
-2.32
-0.47
0.61
0.63
-0.60
-3.22
-7.37
-12.97
-19.52
-26.11
-31.33
-33.75
-32.23
-26.32
-16.33
-3.26
11.50
26.45
40.27
52.08
61.43
68.37
73.21
76.40
78.37
79.47
79.98
80.31
81.03
82.75
85.83
89.89
93.79
95.70
93.85
87.10
75.55
60.49
43.91
27.78
13.59
2.25
-5.76
-9.91
-9.68
-4.79
4.15
15.34
25.89
32.64
33.32
27.29
15.84
1.67
-12.24
-23.55
-31.23
-35.46
-37.06
-36.85
-35.42
-33.07
-30.16
-27.39
-25.75
-26.13
-28.93
-33.81
-39.80
-45.76
-50.82
-54.72
-57.85
-60.82
-64.14
-67.93
-71.83
-75.16
-77.30
-77.86
-76.84
-74.54
-71.38
-67.81
-64.24
-61.05
-58.61
-57.35
-57.47
-58.81
-60.67
-61.86
-61.03
-57.08
-49.64
-38.97
-25.90
-11.24
4.53
21.45
39.86
60.04
81.83
104.36
126.17
145.45
160.61
170.39
174.24
172.28
165.24
154.36
141.23
127.68
115.48
106.20
100.70
99.00
100.23
102.72
104.48
103.39
97.77
86.50
69.31
46.96
21.29
-4.91
-28.24
-45.37
-53.74
-52.33
-42.13
-26.02
-8.03
7.90
18.97
24.09
23.86
19.72
13.24
5.58
-2.43
-9.87
-15.44
-17.58
-14.94
-6.89
6.15
22.82
41.28
59.61
76.10
89.37
98.50
103.10
103.58
100.97
96.77
92.50
89.23
87.30
86.27
85.17
82.86
78.43
71.40
61.76
49.77
35.75
19.89
2.20
-17.44
-38.86
-61.67
-85.12
-108.37
-130.70
-151.73
-171.39
-189.88
-207.46
-224.31
-240.55
-255.81
-269.03
-278.27
-280.82
-274.32
-257.87
-233.06
-203.98
-175.98
-153.63
-139.15
-131.73
-128.43
-125.75
-121.14
-113.68
-103.77
-92.24
-79.48
-65.03
-47.91
-27.11
-2.51
24.78
52.29
76.64
94.53
103.66
103.63
95.85
83.21
69.03
56.18
46.64
41.23
39.92
42.21
47.38
54.65
63.26
72.48
81.87
91.39
101.69
113.80
128.68
146.51
166.07
184.71
199.04
206.12
204.62
195.32
180.48
162.68
143.53
123.37
101.64
77.91
52.44
26.23
0.49
-23.89
-46.33
-65.93
-80.98
-89.02
-88.27
-79.11
-65.15
-52.56
-47.78
-54.84
-73.60
-99.93
-127.33
-149.41
-161.66
-162.20
-151.51
-131.60
-105.41
-76.49
-48.60
-25.10
-8.18
1.78
6.13
7.27
7.53
8.22
9.48
10.58
10.60
8.92
5.48
0.77
-4.54
-9.68
-14.22
-18.08
-21.57
-25.29
-29.81
-35.20
-41.00
-46.26
-49.98
-51.70
-51.63
-50.59
-49.53
-49.22
-49.89
-51.31
-52.94
-53.99
-53.51
-50.56
-44.32
-34.36
-20.78
-4.27
14.06
32.88
50.92
66.95
79.98
89.21
94.23
95.05
92.22
86.60
79.13
70.48
60.86
50.08
37.89
24.29
9.90
-4.04
-16.02
-24.69
-29.41
-30.43
-28.86
-26.02
-23.14
-20.90
-19.35
-18.13
-16.39
-12.91
-6.28
4.60
19.64
36.75
51.86
59.99
57.05
41.75
16.43
-13.70
-42.44
-64.77
-78.26
-83.14
-81.25
-74.74
-65.24
-53.75
-41.02
-28.10
-16.23
-6.60
0.14
4.21
6.41
7.81
9.25
11.03
13.00
14.80
16.18
17.14
17.90
18.78
19.95
21.25
22.18
22.11
20.50
17.28
12.90
8.36
4.79
3.01
3.16
4.62
6.13
6.17
3.51
-2.50
-11.59
-22.66
-34.05
-44.08
-51.56
-56.15
-58.39
-59.37
-60.16
-61.47
-63.55
-66.67
-71.36
-78.58
-89.13
-103.09
-119.26
-135.60
-149.78
-160.09
-165.64
-166.12
-161.17
-150.09
-132.23
-107.82
-78.71
-48.20
-20.05
3.04
20.43
33.65
45.53
59.08
76.49
98.79
125.58
155.02
183.83
207.60
221.68
222.35
208.15
180.66
144.33
105.21
69.42
41.82
25.42
21.50
29.86
48.98
76.08
107.22
137.91
164.05
183.01
194.16
198.38
196.91
189.92
176.22
153.81
121.59
80.65
34.73
-10.55
-49.44
-77.53
-92.76
-95.28
-87.00
-70.67
-49.54
-27.06
-6.71
8.38
15.97
15.26
7.22
-5.76
-20.45
-33.81
-43.85
-50.02
-53.07
-54.40
-55.28
-56.43
-57.96
-59.66
-61.46
-63.47
-65.86
-68.51
-70.78
-71.70
-70.17
-65.61
-58.08
-48.29
-37.21
-25.69
-14.17
-2.67
8.88
20.48
31.85
42.53
52.06
60.13
66.68
71.84
75.96
79.32
82.20
84.76
87.13
89.36
91.50
93.73
96.15
98.87
101.78
104.49
106.37
106.76
105.17
101.50
96.10
89.50
82.33
75.01
67.72
60.41
52.90
45.19
37.61
30.96
26.35
24.97
27.53
34.03
43.46
54.25
64.89
74.60
83.73
93.25
104.14
116.27
127.95
136.01
136.75
126.94
104.84
70.61
26.38
-23.70
-73.63
-116.27
-144.83
-155.02
-147.09
-126.33
-101.56
-81.94
-73.47
-77.09
-89.09
-103.65
-115.82
-123.34
-126.48
-126.50
-124.02
-118.49
-108.98
-95.40
-79.20
-63.05
-49.71
-40.94
-36.77
-35.80
-35.83
-34.90
-31.97
-27.15
-21.53
-16.68
-13.95
-13.88
-16.06
-19.28
-22.09
-23.26
-22.06
-18.10
-11.21
-1.33
11.14
25.08
38.52
48.96
54.13
52.64
44.46
30.74
13.29
-6.19
-26.62
-47.39
-67.90
-86.82
-101.81
-109.85
-108.36
-96.27
-74.88
-47.94
-20.86
0.56
11.53
9.31
-6.23
-32.55
-64.88
-97.25
-123.83
-140.20
-144.39
-136.94
-120.36
-98.20
-73.90
-50.26
-29.26
-12.26
0.01
7.32
10.08
9.35
6.46
2.75
-0.97
-4.38
-7.55
-10.43
-12.70
-13.75
-13.07
-10.60
-6.90
-3.02
-0.06
1.27
0.93
-0.65
-2.96
-5.60
-8.51
-11.64
-14.85
-17.66
-19.47
-19.88
-18.92
-17.04
-14.63
-11.72
-7.74
-1.79
6.77
17.82
30.24
42.35
52.55
59.97
64.54
66.71
66.99
65.59
62.48
57.85
52.48
47.79
45.47
46.63
51.17
57.70
63.89
67.52
67.21
63.02
56.18
48.52
41.73
36.75
33.74
32.16
31.34
30.73
30.01
29.20
28.38
27.68
27.06
26.32
25.08
22.97
19.83
15.85
11.73
8.61
7.66
9.66
14.56
21.33
28.32
33.91
36.95
37.17
34.95
31.14
26.82
23.35
22.33
25.25
32.82
44.08
56.08
64.40
64.75
54.78
35.15
9.46
-17.22
-40.15
-56.53
-65.99
-70.08
-71.28
-72.10
-74.47
-79.57
-87.63
-97.72
-107.72
-114.62
-115.26
-107.29
-90.03
-64.87
-34.96
-4.36
23.02
44.43
58.74
66.28
68.26
66.00
60.58
52.69
42.96
32.23
21.65
12.44
5.43
0.78
-2.18
-4.60
-7.84
-13.13
-21.16
-31.85
-44.00
-55.42
-63.27
-65.01
-59.29
-46.77
-30.18
-13.71
-1.87
1.85
-4.01
-18.53
-38.74
-60.49
-79.65
-92.99
-98.71
-96.53
-87.36
-72.92
-55.40
-37.09
-19.99
-5.27
7.18
18.80
31.77
47.85
67.35
88.63
108.47
123.39
130.85
130.11
122.21
109.29
93.75
77.58
62.28
48.92
38.29
30.77
26.22
23.75
21.98
19.50
15.33
9.32
2.08
-5.40
-12.04
-17.21
-20.86
-23.54
-26.09
-29.42
-34.07
-40.14
-47.31
-54.93
-62.44
-69.42
-75.77
-81.69
-87.50
-93.56
-100.14
-107.22
-114.31
-120.60
-124.90
-125.95
-122.86
-115.37
-104.17
-90.79
-77.22
-65.24
-56.02
-49.70
-45.59
-42.69
-40.02
-37.17
-34.25
-31.71
-29.95
-29.19
-29.19
-29.46
-29.44
-28.54
-26.39
-22.82
-17.88
-11.90
-5.44
0.95
6.78
11.65
15.45
18.14
19.74
20.37
20.21
19.53
18.69
17.95
17.22
16.18
14.26
10.93
5.91
-0.80
-8.93
-17.90
-26.94
-34.96
-40.57
-42.45
-39.61
-31.82
-19.86
-5.28
9.98
24.11
35.90
44.87
51.11
55.18
57.90
60.13
62.69
66.07
70.32
75.00
79.50
83.14
85.64
87.17
88.20
89.25
90.61
92.23
93.79
94.95
95.45
95.26
94.49
93.27
91.64
89.56
86.89
83.51
79.36
74.49
69.07
63.34
57.51
51.70
45.82
39.60
32.62
24.43
14.70
3.37
-9.23
-22.26
-34.49
-44.49
-50.93
-52.96
-50.35
-43.62
-33.78
-22.11
-9.82
2.11
12.96
22.25
29.60
34.93
38.29
39.90
40.16
39.52
38.40
37.24
36.41
36.14
36.59
37.80
39.67
42.09
44.83
47.59
50.00
51.66
52.13
51.09
48.49
44.50
39.64
34.41
29.26
24.26
19.23
13.75
7.43
0.13
-7.94
-16.24
-24.15
-31.15
-37.11
-42.26
-47.14
-52.31
-58.20
-64.75
-71.34
-76.88
-80.03
-79.64
-75.09
-66.45
-54.44
-40.28
-25.29
-10.74
2.38
13.41
22.04
28.27
32.27
34.38
34.99
34.49
33.28
31.74
30.22
29.02
28.37
28.28
28.61
29.08
29.38
29.28
28.71
27.75
26.57
25.23
23.64
21.57
18.78
15.20
10.97
6.42
1.85
-2.49
-6.60
-10.62
-14.71
-19.05
-23.73
-28.87
-34.59
-40.98
-47.82
-54.51
-60.04
-63.15
-62.69
-58.08
-49.48
-37.86
-24.61
-11.19
1.24
12.04
21.04
28.26
33.77
37.59
39.76
40.55
40.53
40.47
41.05
42.70
45.31
48.47
51.66
54.67
57.56
60.76
64.74
69.73
75.55
81.61
87.11
91.38
94.16
95.70
96.72
98.08
100.36
103.65
107.41
110.57
111.84
109.85
103.54
92.28
76.42
57.43
37.78
20.24
6.77
-2.57
-9.90
-18.77
-32.51
-52.48
-77.10
-102.26
-122.87
-134.72
-135.90
-127.11
-111.09
-91.34
-71.03
-52.31
-36.13
-22.44
-10.63
0.21
10.90
22.12
34.20
47.06
59.90
71.19
78.73
80.32
74.48
61.17
41.92
19.13
-4.80
-28.49
-51.66
-74.70
-97.74
-119.97
-139.54
-154.19
-162.27
-163.36
-158.52
-149.71
-139.00
-127.85
-116.76
-105.43
-93.29
-79.97
-65.66
-51.05
-37.07
-24.48
-13.73
-4.92
1.92
6.68
9.22
9.47
7.67
4.54
1.11
-1.55
-2.59
-1.67
1.11
5.37
10.66
16.65
23.16
30.07
37.09
43.93
50.14
55.31
59.18
61.72
63.09
63.69
63.99
64.40
65.24
66.59
68.29
69.77
70.32
69.21
66.24
62.06
57.98
55.34
54.43
53.83
50.42
40.53
21.56
-6.63
-41.42
-78.26
-112.28
-139.75
-158.73
-168.82
-170.43
-164.33
-151.55
-133.57
-112.26
-89.28
-65.41
-40.17
-12.47
18.23
50.51
80.56
102.97
112.63
106.92
86.81
56.68
22.62
-9.56
-36.09
-55.60
-68.72
-76.90
-81.52
-83.38
-82.84
-80.23
-76.17
-71.60
-67.53
-64.59
-62.82
-61.65
-60.02
-56.84
-51.25
-42.97
-32.32
-20.14
-7.44
4.79
15.88
25.50
33.62
40.24
45.27
48.32
48.92
46.65
41.48
33.89
24.77
15.22
6.08
-2.26
-10.01
-17.69
-25.79
-34.35
-42.93
-50.68
-56.62
-59.83
-59.54
-55.08
-45.96
-32.23
-14.82
4.26
22.18
36.03
43.64
44.19
38.23
27.27
13.01
-3.15
-20.24
-37.62
-54.55
-70.02
-82.73
-91.44
-95.22
-93.89
-87.93
-78.38
-66.53
-53.57
-40.39
-27.59
-15.71
-5.25
3.14
8.84
11.58
11.50
9.34
6.13
2.88
0.14
-1.99
-3.81
-5.71
-7.90
-10.27
-12.53
-14.41
-15.78
-16.84
-17.82
-19.01
-20.40
-21.78
-22.89
-23.66
-24.48
-26.10
-29.42
-34.94
-42.48
-51.02
-58.83
-64.10
-65.33
-61.89
-54.05
-42.85
-29.65
-15.92
-2.77
9.03
19.02
27.01
32.96
36.98
39.20
39.92
39.46
38.17
36.43
34.46
32.47
30.64
29.25
28.55
28.72
29.77
31.44
33.23
34.52
34.80
33.85
31.84
29.30
26.84
24.90
23.53
22.36
20.74
18.07
14.07
9.03
3.81
-0.44
-2.59
-2.03
1.17
6.28
12.18
17.75
22.25
25.42
27.40
28.48
28.77
28.11
26.27
23.21
19.20
14.82
10.76
7.43
4.91
2.83
0.80
-1.39
-3.44
-4.86
-5.15
-4.25
-2.72
-1.50
-1.65
-3.85
-8.17
-14.10
-20.85
-27.65
-34.06
-40.05
-45.85
-51.75
-58.09
-65.05
-72.68
-80.82
-88.93
-96.07
-100.85
-101.71
-97.35
-87.23
-71.91
-52.98
-32.74
-13.52
2.82
15.23
23.55
28.24
30.04
29.75
28.09
25.66
22.92
20.25
17.74
15.40
13.12
10.84
8.63
6.66
5.06
3.85
2.77
1.32
-1.03
-4.80
-10.17
-16.81
-23.79
-29.65
-32.67
-31.43
-25.41
-15.21
-2.64
9.92
20.14
26.42
28.14
25.65
20.01
12.60
5.03
-1.13
-4.41
-3.56
2.14
12.77
27.66
45.53
64.69
83.40
100.18
114.16
125.05
133.03
138.47
141.56
142.18
140.04
135.06
127.61
118.68
109.65
101.82
95.98
92.16
89.72
87.77
85.71
83.24
80.53
77.82
75.20
72.54
69.48
65.75
61.30
56.36
51.27
46.32
41.62
37.20
33.06
29.21
25.68
22.46
19.47
16.59
13.69
10.69
7.57
4.46
1.75
0.10
0.51
3.96
11.17
22.11
35.86
50.51
63.73
73.20
77.17
74.92
66.91
54.84
41.28
29.15
20.93
18.14
20.84
27.88
37.16
46.28
53.13
56.41
56.00
53.15
50.11
49.31
52.13
57.90
63.67
65.08
57.90
39.51
9.71
-29.38
-74.05
-119.84
-162.09
-196.62
-220.18
-231.09
-229.64
-218.11
-200.04
-179.34
-159.23
-141.79
-127.97
-117.79
-110.78
-106.03
-102.41
-98.66
-93.58
-86.24
-76.07
-62.99
-47.38
-30.14
-12.44
4.52
19.77
32.69
42.88
50.15
54.35
55.52
54.07
50.85
47.07
43.91
42.25
42.43
44.44
48.18
53.70
61.25
70.92
82.38
94.57
105.89
114.57
119.23
119.55
116.34
111.34
106.50
103.26
102.03
102.33
103.22
103.90
104.00
103.53
102.43
100.29
96.19
89.07
78.27
64.19
48.37
33.18
20.93
13.03
9.42
8.43
7.51
3.99
-3.87
-16.43
-32.51
-49.99
-66.27
-78.96
-86.27
-87.24
-82.17
-72.87
-62.78
-56.57
-58.96
-73.10
-99.26
-134.16
-171.85
-205.48
-229.50
-241.06
-240.29
-229.44
-211.60
-189.63
-165.95
-142.54
-121.46
-104.71
-93.79
-89.13
-89.65
-93.02
-96.44
-97.71
-95.87
-91.48
-86.06
-81.30
-78.17
-76.46
-74.99
-72.10
-66.42
-57.38
-45.35
-31.29
-16.36
-1.43
12.91
26.26
38.17
48.01
55.19
59.51
61.58
62.73
64.61
68.54
74.90
83.05
91.56
98.71
103.13
104.06
101.38
95.42
86.80
76.31
64.95
53.81
43.91
35.79
29.35
23.81
18.16
11.63
4.03
-4.18
-12.19
-19.39
-25.59
-31.07
-36.21
-41.17
-45.72
-49.51
-52.30
-54.07
-54.84
-54.40
-51.98
-46.54
-37.16
-23.65
-6.83
11.61
29.75
45.96
59.33
69.60
76.77
80.82
81.49
78.53
71.93
62.13
50.15
37.41
25.54
15.95
9.65
6.76
6.48
7.24
7.26
5.21
0.53
-6.54
-15.49
-25.77
-36.82
-47.60
-56.38
-60.98
-59.81
-52.92
-42.53
-32.35
-26.02
-25.67
-31.10
-40.15
-49.97
-58.11
-63.14
-64.51
-62.12
-56.08
-46.67
-34.40
-20.12
-4.84
10.41
24.76
37.55
48.48
57.47
64.77
70.82
75.95
80.27
83.61
85.79
86.85
87.28
87.78
88.81
90.14
90.58
88.31
81.64
69.88
53.78
35.45
17.62
2.58
-8.50
-15.90
-20.80
-24.61
-28.27
-32.05
-35.82
-39.51
-43.39
-47.93
-53.59
-60.14
-66.64
-71.76
-74.26
-73.47
-69.62
-63.54
-56.22
-48.49
-40.72
-32.90
-25.10
-17.53
-10.88
-5.99
-3.61
-3.97
-6.80
-11.40
-16.82
-22.30
-27.21
-31.28
-34.46
-36.82
-38.49
-39.57
-40.15
-40.21
-39.64
-38.21
-35.76
-32.21
-27.66
-22.47
-17.06
-11.97
-7.66
-4.67
-3.41
-4.32
-7.69
-13.59
-21.80
-31.61
-41.95
-51.46
-58.92
-63.37
-64.31
-61.70
-55.87
-47.46
-37.28
-26.24
-15.26
-5.29
2.91
8.90
12.64
14.43
14.89
14.72
14.46
14.42
14.66
15.12
15.64
16.19
16.77
17.39
18.05
18.63
18.95
18.78
17.91
16.20
13.68
10.49
6.96
3.46
0.19
-2.81
-5.86
-9.46
-14.18
-20.41
-28.05
-36.46
-44.45
-50.57
-53.34
-51.72
-45.34
-34.71
-21.04
-5.97
8.88
22.25
33.36
42.01
48.32
52.56
54.99
55.85
55.43
54.07
52.19
50.12
48.04
45.94
43.70
41.28
38.85
36.70
35.17
34.38
34.06
33.69
32.62
30.42
27.08
22.94
18.38
13.63
8.70
3.34
-2.70
-9.60
-17.40
-25.96
-34.97
-43.79
-51.49
-56.77
-58.30
-55.16
-47.23
-35.31
-20.90
-5.75
8.58
21.05
31.16
38.82
44.16
47.37
48.74
48.63
47.38
45.37
42.88
40.13
37.23
34.31
31.57
29.26
27.69
26.98
27.00
27.25
27.05
25.72
22.88
18.60
13.34
7.71
2.18
-3.03
-8.09
-13.35
-19.27
-26.17
-34.18
-43.00
-51.70
-58.68
-61.94
-59.70
-51.18
-37.01
-19.16
-0.27
17.16
31.57
42.47
50.22
55.48
58.80
60.48
60.69
59.68
57.76
55.37
52.89
50.61
48.71
47.27
46.29
45.82
45.84
46.26
46.82
47.03
46.35
44.34
40.84
36.18
31.00
25.97
21.54
17.58
13.49
8.39
1.71
-6.53
-15.44
-23.39
-28.47
-29.14
-24.81
-16.25
-5.40
5.17
13.00
16.38
14.77
8.67
-0.73
-12.13
-24.50
-37.24
-50.09
-62.83
-75.05
-86.11
-95.23
-101.81
-105.72
-107.32
-107.23
-106.12
-104.29
-101.70
-98.01
-92.99
-86.70
-79.60
-72.55
-66.46
-62.04
-59.58
-58.90
-59.53
-60.90
-62.46
-63.80
-64.65
-64.71
-63.58
-60.72
-55.73
-48.51
-39.47
-29.48
-19.51
-10.46
-2.74
3.64
9.03
13.70
17.75
20.84
22.35
21.54
17.74
10.74
0.87
-10.72
-22.09
-30.82
-34.52
-31.68
-22.11
-7.21
10.40
27.62
41.73
51.03
54.99
54.10
49.37
42.00
32.92
22.75
11.78
0.18
-11.71
-23.19
-33.14
-40.23
-43.19
-41.38
-34.78
-24.13
-10.55
4.76
20.69
36.28
50.57
62.62
71.58
76.98
78.88
77.90
75.16
71.86
69.04
67.31
66.80
67.24
68.24
69.37
70.38
71.21
71.90
72.44
72.67
72.22
70.59
67.37
62.22
55.10
46.21
35.82
24.21
11.57
-2.04
-16.56
-31.67
-46.58
-60.04
-70.43
-76.22
-76.30
-70.39
-59.13
-43.98
-26.70
-9.13
7.30
21.66
33.48
42.66
49.30
53.62
55.92
56.75
56.71
56.41
56.29
56.35
56.28
55.56
53.80
50.95
47.38
43.64
40.21
37.29
34.73
32.19
29.39
26.23
22.87
19.69
17.13
15.57
15.35
16.59
19.17
22.56
25.76
27.48
26.44
21.71
13.31
2.25
-9.62
-20.13
-27.39
-30.32
-28.72
-23.19
-14.72
-4.37
6.96
18.49
29.54
39.39
47.46
53.34
57.09
59.18
60.39
61.52
63.06
65.10
67.29
69.11
70.11
70.16
69.51
68.77
68.50
68.89
69.53
69.37
67.08
61.50
51.99
38.60
22.01
3.13
-17.08
-37.76
-58.06
-77.09
-93.95
-107.96
-118.84
-126.60
-131.36
-132.85
-130.36
-122.89
-109.83
-91.60
-69.79
-46.89
-25.46
-7.51
6.09
15.47
21.28
24.35
25.30
24.73
23.27
21.71
20.87
21.36
23.32
26.26
29.27
31.34
31.82
30.66
28.52
26.38
25.11
25.16
26.38
28.28
30.24
31.76
32.41
31.76
29.27
24.44
17.15
7.91
-2.05
-11.16
-18.08
-22.16
-23.46
-22.48
-19.68
-15.19
-8.86
-0.49
9.66
20.81
31.71
40.99
47.54
50.62
49.93
45.58
38.06
28.37
17.95
8.44
1.39
-2.29
-2.72
-0.82
1.92
4.20
5.37
5.53
5.29
5.25
5.65
6.24
6.69
6.79
6.74
7.01
7.93
9.40
10.80
11.22
9.76
5.91
-0.31
-8.52
-18.07
-28.36
-38.72
-48.45
-56.68
-62.43
-64.77
-63.17
-57.66
-48.84
-37.69
-25.04
-11.40
3.06
18.18
33.34
47.25
58.08
64.08
64.13
58.27
47.64
34.27
20.66
9.37
2.61
1.95
7.97
19.94
35.91
53.05
68.37
79.44
84.88
84.53
79.12
69.91
58.17
45.05
31.39
17.99
5.38
-6.16
-16.66
-26.53
-36.47
-47.22
-59.16
-72.09
-85.01
-96.30
-104.18
-107.20
-104.83
-97.65
-87.26
-75.67
-64.86
-56.14
-50.06
-46.47
-44.81
-44.46
-44.78
-45.25
-45.35
-44.59
-42.58
-39.20
-34.66
-29.41
-23.98
-18.65
-13.42
-7.98
-1.98
4.85
12.62
21.15
30.13
39.07
47.40
54.45
59.61
62.51
63.23
62.28
60.26
57.55
53.86
48.33
39.88
27.81
12.35
-5.09
-22.17
-36.27
-45.12
-47.36
-42.65
-31.64
-15.82
2.57
20.81
36.10
46.15
49.88
47.69
41.38
33.48
26.43
21.81
20.00
20.54
22.46
24.94
27.57
30.32
33.25
36.16
38.50
39.15
37.06
31.49
22.60
11.33
-0.79
-12.26
-22.10
-29.96
-36.10
-40.99
-45.05
-48.51
-51.47
-53.90
-55.66
-56.43
-55.72
-53.03
-48.07
-40.95
-32.25
-22.82
-13.54
-5.13
1.97
7.50
11.28
13.24
13.36
11.78
8.85
5.14
1.27
-2.14
-4.67
-6.15
-6.69
-6.64
-6.55
-7.01
-8.55
-11.51
-15.99
-21.71
-28.07
-34.22
-39.30
-42.67
-44.13
-43.93
-42.73
-41.31
-40.39
-40.36
-41.13
-42.08
-42.36
-41.12
-37.95
-33.04
-27.05
-21.03
-15.86
-12.12
-9.85
-8.68
-8.01
-7.25
-6.05
-4.16
-1.54
1.78
5.72
10.24
15.28
20.88
27.35
35.21
45.22
57.83
72.73
88.30
101.84
110.15
110.61
102.20
85.74
63.59
38.62
13.47
-10.03
-30.63
-47.30
-59.10
-65.32
-65.98
-62.12
-55.88
-49.67
-45.60
-44.91
-47.85
-54.05
-62.92
-74.03
-86.95
-101.32
-116.33
-130.86
-143.46
-152.63
-156.91
-155.01
-146.10
-129.91
-107.21
-79.78
-50.33
-21.85
3.13
23.23
38.39
49.54
58.06
65.06
71.12
76.26
80.21
82.84
84.25
84.82
84.93
84.82
84.39
83.42
81.69
79.15
76.13
73.16
70.79
69.32
68.75
68.62
68.25
66.85
63.66
58.22
50.38
40.43
28.98
16.86
4.91
-6.13
-15.61
-23.06
-28.06
-30.39
-30.04
-27.37
-22.99
-17.78
-12.68
-8.53
-6.03
-5.60
-7.40
-11.25
-16.69
-22.93
-29.09
-34.31
-37.88
-39.33
-38.45
-35.26
-30.03
-23.27
-15.69
-8.10
-1.36
3.93
7.45
9.28
9.76
9.38
8.57
7.62
6.63
5.59
4.48
3.31
2.13
1.03
-0.00
-1.00
-2.07
-3.27
-4.73
-6.44
-8.52
-11.07
-14.23
-18.07
-22.59
-27.57
-32.63
-37.28
-40.97
-43.24
-43.79
-42.55
-39.57
-34.99
-28.87
-21.26
-12.39
-2.83
6.50
14.38
19.76
22.14
21.71
19.29
16.03
12.91
10.69
9.88
10.89
14.08
19.64
27.45
36.92
46.99
56.34
63.71
68.06
68.84
65.93
59.70
50.79
40.12
28.65
17.31
7.01
-1.57
-7.95
-11.96
-13.70
-13.59
-12.19
-10.02
-7.51
-4.90
-2.30
0.20
2.46
4.23
5.29
5.42
4.61
2.96
0.91
-1.04
-2.23
-2.19
-0.85
1.59
4.54
7.43
9.80
11.61
13.09
14.72
17.01
20.17
24.11
28.24
31.57
32.90
31.14
25.86
17.63
8.10
-0.38
-5.43
-5.50
-0.32
9.15
20.99
33.00
43.28
50.45
53.82
53.34
49.42
42.81
34.50
25.38
16.21
7.74
0.77
-3.75
-4.75
-1.42
6.35
17.97
32.13
47.35
62.55
77.10
90.84
103.54
114.67
123.21
128.20
128.95
125.47
118.52
109.11
98.35
87.15
76.39
67.03
60.30
57.34
58.89
64.79
73.80
84.09
93.66
100.98
105.31
106.68
105.47
102.12
96.75
89.04
78.38
64.07
45.57
22.92
-3.12
-31.11
-59.15
-85.27
-108.06
-126.80
-141.68
-153.37
-162.53
-169.58
-174.51
-177.06
-176.97
-174.30
-169.36
-162.82
-155.43
-147.82
-140.47
-133.62
-127.34
-121.53
-116.02
-110.57
-105.06
-99.48
-93.89
-88.54
-83.68
-79.54
-76.16
-73.24
-70.08
-65.66
-58.83
-48.68
-34.97
-18.15
0.54
19.42
36.82
51.42
62.45
69.63
73.04
72.79
68.96
61.53
50.58
36.47
19.97
2.31
-15.03
-30.56
-43.04
-51.60
-55.87
-55.90
-52.13
-45.46
-37.10
-28.48
-20.97
-15.59
-12.75
-12.30
-13.58
-15.77
-18.17
-20.39
-22.43
-24.61
-27.38
-31.16
-36.17
-42.39
-49.55
-57.34
-65.41
-73.53
-81.49
-89.07
-96.12
-102.37
-107.47
-110.83
-111.72
-109.40
-103.40
-93.73
-80.90
-65.90
-49.85
-33.78
-18.49
-4.54
7.73
18.08
26.41
32.90
37.93
42.03
45.72
49.38
53.14
56.97
60.70
64.20
67.42
70.43
73.22
75.54
76.74
75.89
72.17
65.19
55.30
43.52
31.23
19.68
9.63
1.16
-6.12
-12.81
-19.35
-25.92
-32.31
-38.11
-42.87
-46.20
-47.96
-48.23
-47.23
-45.21
-42.34
-38.64
-33.93
-27.98
-20.53
-11.59
-1.51
9.02
18.98
27.31
33.21
36.25
36.44
34.10
29.77
24.02
17.61
11.35
6.08
2.45
0.72
0.71
1.92
3.86
6.21
9.03
12.52
16.76
21.46
25.88
29.07
30.16
28.69
24.70
18.80
11.82
4.66
-1.85
-7.11
-10.73
-12.66
-13.09
-12.42
-11.14
-9.72
-8.50
-7.63
-7.23
-7.30
-7.91
-8.98
-10.31
-11.36
-11.32
-9.30
-4.50
3.42
14.29
27.36
41.59
55.80
68.94
80.28
89.38
96.14
100.73
103.59
105.38
106.90
109.09
112.96
119.42
128.94
141.31
155.43
169.41
180.95
187.85
188.47
182.12
168.92
149.59
125.06
96.20
63.78
28.48
-9.06
-48.30
-88.95
-130.93
-174.51
-220.01
-267.58
-316.59
-365.43
-411.47
-451.28
-481.17
-497.69
-498.12
-481.09
-447.00
-397.96
-337.23
-268.56
-195.51
-121.27
-48.92
18.32
77.10
124.60
159.89
184.54
202.47
218.44
236.05
256.43
278.25
298.68
314.75
324.08
324.78
315.11
293.31
258.24
210.37
152.35
88.51
23.95
-36.86
-90.78
-135.95
-171.21
-195.64
-208.55
-209.98
-201.10
-184.27
-162.56
-139.06
-116.23
-95.62
-78.00
-63.43
-51.61
-41.92
-33.46
-25.30
-17.06
-8.96
-1.94
2.82
4.63
3.47
-0.04
-4.96
-10.63
-16.73
-22.90
-28.76
-33.66
-36.89
-38.34
-38.62
-38.45
-38.10
-36.60
-31.63
-20.71
-2.02
24.97
58.69
95.64
131.26
160.43
178.91
184.47
177.97
162.84
146.04
134.83
132.47
136.86
142.15
141.18
131.96
115.47
94.43
71.94
49.92
28.61
10.42
-3.29
-11.55
-13.73
-10.51
-3.77
3.87
9.34
10.09
5.04
-5.71
-20.56
-37.07
-53.10
-67.22
-78.85
-88.30
-96.29
-103.39
-110.13
-116.52
-122.28
-127.14
-130.91
-133.47
-134.88
-135.28
-134.67
-133.11
-130.46
-126.45
-120.83
-113.39
-104.13
-93.58
-82.55
-71.87
-62.28
-54.21
-47.68
-42.14
-36.47
-29.46
-20.31
-8.75
5.18
21.15
38.79
57.85
77.96
98.19
116.39
129.77
136.46
137.30
135.42
134.59
137.05
142.04
146.42
146.01
137.92
121.93
100.32
75.56
48.69
19.40
-13.11
-45.25
-70.02
-80.80
-77.39
-62.61
-40.50
-15.02
10.50
33.23
51.60
64.69
71.97
73.32
69.49
61.44
50.21
36.92
23.02
10.26
-0.25
-8.52
-15.46
-22.09
-29.35
-37.76
-47.27
-57.46
-67.68
-77.76
-88.02
-98.78
-109.79
-120.39
-129.77
-137.05
-141.24
-140.97
-134.68
-120.96
-99.16
-69.89
-35.18
2.02
38.81
73.34
105.15
134.94
163.90
193.01
222.39
250.57
274.28
288.67
288.54
270.08
232.54
179.09
116.34
52.40
-5.24
-51.40
-83.99
-103.61
-112.56
-113.95
-110.95
-106.33
-102.23
-100.18
-101.20
-106.11
-115.76
-130.78
-151.05
-174.75
-197.85
-214.65
-219.28
-208.00
-180.80
-141.90
-98.22
-57.05
-23.21
2.47
22.94
43.38
68.55
100.45
137.02
172.60
199.82
212.62
208.48
189.29
160.43
128.46
98.81
74.41
55.91
42.61
33.51
27.72
24.32
22.59
22.58
25.93
35.87
55.82
86.92
126.16
166.25
197.81
213.03
208.36
185.53
150.25
109.58
69.70
34.92
7.71
-10.53
-19.17
-18.51
-10.15
3.02
17.38
29.63
37.82
41.99
43.84
45.99
50.62
58.42
67.92
75.74
77.70
70.31
52.22
24.90
-7.77
-40.79
-69.60
-91.21
-104.73
-110.71
-109.86
-101.69
-83.90
-53.55
-9.66
44.32
99.68
144.41
167.39
162.78
132.46
85.16
32.62
-14.95
-51.93
-77.44
-93.36
-101.75
-103.26
-97.24
-82.63
-59.06
-27.13
11.35
53.39
94.67
129.91
153.58
161.16
150.42
122.05
79.63
28.70
-24.38
-73.45
-113.11
-139.03
-148.51
-141.24
-120.06
-91.10
-63.10
-45.45
-45.54
-66.48
-105.91
-156.62
-208.85
-253.32
-283.67
-297.42
-295.11
-278.94
-251.71
-216.84
-178.90
-143.54
-116.24
-100.18
-94.77
-95.54
-96.03
-90.66
-76.94
-56.04
-31.48
-7.05
14.67
32.64
46.77
57.00
62.89
63.91
59.90
51.50
40.22
28.08
17.10
8.85
4.16
3.03
4.89
8.94
14.36
20.42
26.28
30.82
32.59
30.15
22.52
9.78
-6.74
-24.63
-41.04
-53.49
-60.54
-62.11
-59.24
-53.46
-46.15
-38.12
-29.59
-20.56
-11.17
-1.71
7.44
16.08
24.31
32.34
40.29
47.87
54.59
59.97
63.97
67.15
70.40
74.66
80.34
87.26
94.56
101.04
105.41
106.58
103.88
97.14
86.82
73.86
59.64
45.83
34.20
26.18
22.42
22.39
24.28
25.57
23.71
16.97
4.93
-11.51
-30.73
-50.87
-70.47
-88.56
-104.45
-117.62
-127.51
-133.59
-135.39
-132.58
-124.99
-112.73
-96.39
-77.13
-56.74
-37.21
-20.17
-6.59
3.52
10.81
16.20
20.39
23.78
26.30
27.50
26.72
23.19
16.51
7.06
-3.70
-13.53
-19.97
-21.35
-17.29
-8.80
2.38
14.47
26.20
36.90
46.05
53.06
57.17
57.69
54.31
47.17
36.62
22.81
5.53
-15.56
-40.41
-67.96
-95.77
-120.34
-137.93
-145.72
-142.77
-130.36
-111.50
-89.81
-68.36
-48.94
-32.11
-17.75
-5.86
3.12
8.39
9.35
6.25
0.39
-6.23
-11.53
-14.13
-13.69
-10.66
-5.81
0.42
8.19
18.01
30.24
44.67
60.50
76.70
92.47
107.52
121.62
134.16
143.66
148.04
145.34
134.66
116.68
93.72
69.00
45.67
26.06
11.37
1.69
-3.58
-5.40
-4.84
-2.87
-0.39
1.83
3.15
3.08
1.42
-1.67
-5.57
-9.25
-11.42
-10.87
-6.66
1.59
13.59
28.45
44.93
61.72
77.57
91.53
102.82
110.90
115.51
116.84
115.62
112.85
109.35
105.19
99.48
90.85
78.31
62.24
44.56
28.11
15.28
6.97
2.30
-0.55
-3.14
-5.76
-7.45
-6.93
-3.49
2.13
8.21
12.89
15.16
15.33
14.88
15.64
18.91
24.88
32.70
41.14
49.47
58.11
68.49
82.20
99.88
120.34
140.65
157.13
166.65
167.62
160.06
144.85
122.75
93.96
58.09
14.94
-35.09
-90.85
-151.04
-214.75
-281.63
-351.28
-422.19
-490.72
-550.81
-595.04
-616.51
-610.83
-577.37
-519.32
-442.56
-354.20
-261.13
-169.17
-82.94
-5.85
59.85
113.17
154.47
185.36
208.21
225.40
238.70
248.88
255.77
258.89
257.93
253.23
245.78
237.03
228.40
220.99
215.36
211.55
209.15
207.30
204.89
200.70
193.92
184.27
172.24
158.74
144.64
130.21
114.97
97.99
78.58
56.81
33.69
11.12
-8.93
-24.96
-36.39
-43.55
-47.36
-48.84
-48.84
-47.97
-46.68
-45.46
-44.95
-45.78
-48.27
-52.32
-57.30
-62.27
-66.33
-68.80
-69.53
-68.79
-67.09
-64.90
-62.50
-59.96
-57.17
-54.05
-50.59
-47.01
-43.67
-40.91
-39.06
-38.33
-38.74
-40.13
-42.09
-43.95
-44.94
-44.33
-41.64
-36.83
-30.24
-22.52
-14.32
-6.19
1.47
8.33
14.02
18.16
20.46
20.84
19.53
17.03
13.92
10.76
7.96
5.67
3.88
2.39
1.02
-0.46
-2.11
-3.84
-5.48
-6.85
-7.87
-8.72
-9.79
-11.50
-14.22
-18.02
-22.56
-27.15
-30.82
-32.65
-31.94
-28.48
-22.54
-14.86
-6.42
1.78
8.83
14.14
17.29
18.21
17.05
14.27
10.46
6.33
2.48
-0.77
-3.27
-5.18
-6.76
-8.34
-10.04
-11.96
-13.93
-15.70
-17.08
-17.93
-18.31
-18.43
-18.72
-19.51
-21.09
-23.47
-26.44
-29.51
-31.95
-32.97
-31.78
-28.02
-21.72
-13.48
-4.21
5.12
13.73
21.20
27.36
32.17
35.62
37.68
38.31
37.68
36.09
34.04
32.08
30.60
29.75
29.44
29.39
29.25
28.76
27.87
26.67
25.35
23.88
22.08
19.51
15.67
10.15
2.80
-6.12
-15.99
-25.73
-34.15
-40.04
-42.51
-41.17
-36.26
-28.55
-19.27
-9.79
-1.27
5.46
10.10
12.83
14.03
14.20
13.65
12.47
10.60
8.04
4.95
1.80
-0.85
-2.55
-3.20
-3.06
-2.71
-2.68
-3.25
-4.42
-5.97
-7.67
-9.45
-11.40
-13.59
-16.08
-18.74
-21.43
-24.12
-26.87
-29.76
-32.65
-35.08
-36.30
-35.63
-32.62
-27.41
-20.62
-13.14
-5.91
0.41
5.39
8.95
11.11
12.08
12.09
11.42
10.38
9.22
8.18
7.38
6.93
6.77
6.85
6.98
6.96
6.65
6.08
5.44
4.92
4.68
4.61
4.42
3.75
2.33
0.19
-2.37
-4.78
-6.57
-7.41
-7.40
-6.98
-6.86
-7.80
-10.26
-14.26
-19.08
-23.56
-26.27
-26.06
-22.43
-15.63
-6.68
3.18
12.69
21.10
28.08
33.77
38.42
42.19
45.13
47.13
48.23
48.57
48.60
49.00
50.41
53.18
57.22
62.03
66.95
71.54
75.70
79.64
83.47
86.97
89.48
90.18
88.70
85.14
80.07
73.91
66.57
57.38
45.64
31.26
14.90
-2.16
-18.82
-34.48
-49.14
-62.86
-75.25
-85.40
-92.18
-94.98
-94.03
-90.54
-85.97
-81.46
-77.11
-71.98
-64.46
-53.09
-37.32
-17.85
3.25
23.42
40.18
52.02
58.60
60.57
58.95
54.75
48.71
41.27
33.01
24.68
17.13
11.03
6.56
3.20
-0.19
-4.93
-12.04
-21.77
-33.57
-46.39
-59.15
-71.13
-82.04
-91.83
-100.44
-107.70
-113.47
-117.91
-121.76
-126.11
-132.02
-139.93
-149.17
-157.88
-163.70
-164.36
-158.58
-146.46
-129.24
-108.93
-87.58
-66.90
-48.04
-31.73
-18.43
-8.23
-1.01
3.73
6.71
8.74
10.41
12.09
13.83
15.52
17.01
18.16
18.87
19.13
18.94
18.34
17.42
16.24
14.89
13.49
12.04
10.50
8.83
6.95
4.88
2.77
0.72
-1.19
-2.95
-4.69
-6.48
-8.26
-9.77
-10.62
-10.35
-8.65
-5.50
-1.16
3.84
8.88
13.24
16.34
17.74
17.36
15.30
11.94
7.86
3.68
-0.01
-2.78
-4.56
-5.52
-6.03
-6.52
-7.33
-8.47
-9.76
-10.82
-11.28
-10.92
-9.71
-7.84
-5.61
-3.47
-1.87
-1.29
-2.02
-4.10
-7.23
-10.85
-14.36
-17.15
-18.74
-18.79
-17.11
-13.66
-8.69
-2.51
4.26
10.97
16.92
21.55
24.49
25.58
24.92
22.81
19.73
16.15
12.49
9.04
5.96
3.37
1.38
0.16
-0.18
0.40
1.70
3.36
4.92
5.94
6.23
5.80
4.81
3.43
1.79
-0.19
-2.61
-5.52
-8.88
-12.49
-16.05
-19.28
-21.85
-23.40
-23.44
-21.43
-17.02
-10.28
-1.81
7.41
16.28
23.97
29.99
34.32
37.11
38.50
38.51
37.10
34.34
30.54
26.20
21.95
18.32
15.68
14.20
13.78
14.17
14.94
15.68
16.05
15.87
15.16
13.97
12.43
10.62
8.53
6.13
3.44
0.41
-3.03
-6.98
-11.46
-16.25
-20.73
-24.05
-25.22
-23.59
-19.05
-12.15
-3.94
4.34
11.67
17.38
21.33
23.75
25.05
25.62
25.74
25.54
24.96
23.94
22.43
20.51
18.34
16.12
13.97
11.87
9.80
7.67
5.51
3.36
1.22
-1.00
-3.41
-6.04
-8.86
-11.70
-14.39
-16.81
-19.04
-21.34
-23.99
-27.19
-30.91
-34.86
-38.45
-40.85
-41.23
-38.92
-33.70
-26.00
-16.70
-6.95
2.12
9.77
15.62
19.67
22.09
23.15
23.06
22.08
20.47
18.51
16.55
14.78
13.31
12.17
11.34
10.81
10.59
10.70
11.12
11.78
12.40
12.68
12.21
10.71
8.02
4.24
-0.28
-5.07
-9.63
-13.62
-17.03
-20.04
-23.05
-26.41
-30.32
-34.73
-39.30
-43.26
-45.82
-46.11
-43.54
-38.00
-29.90
-20.08
-9.65
0.33
9.09
16.23
21.67
25.52
27.92
28.96
28.73
27.44
25.40
23.11
21.06
19.59
18.87
18.78
19.02
19.41
19.80
20.18
20.53
20.79
20.84
20.50
19.63
18.15
16.10
13.57
10.69
7.65
4.57
1.58
-1.19
-3.75
-6.20
-8.77
-11.72
-15.33
-19.67
-24.60
-29.63
-33.90
-36.31
-35.87
-32.06
-25.02
-15.60
-5.02
5.47
14.98
22.99
29.35
34.02
36.87
37.82
36.89
34.37
30.81
26.87
23.03
19.63
16.88
14.81
13.47
12.85
12.94
13.64
14.71
15.86
16.77
17.22
17.11
16.47
15.45
14.25
13.05
11.84
10.47
8.73
6.39
3.43
0.11
-3.31
-6.54
-9.52
-12.38
-15.45
-18.95
-22.96
-27.44
-32.06
-36.37
-39.76
-41.45
-40.73
-37.16
-30.75
-22.17
-12.52
-3.02
5.25
11.74
16.40
19.53
21.51
22.62
22.99
22.69
21.81
20.52
19.19
18.13
17.61
17.75
18.48
19.63
21.01
22.47
23.82
24.94
25.63
25.77
25.30
24.26
22.71
20.73
18.33
15.45
12.03
8.03
3.63
-0.90
-5.30
-9.32
-12.99
-16.38
-19.72
-23.15
-26.79
-30.58
-34.32
-37.63
-39.95
-40.73
-39.48
-36.00
-30.37
-23.02
-14.51
-5.49
3.41
11.71
19.02
25.14
29.96
33.55
36.02
37.49
38.05
37.82
37.00
35.86
34.83
34.29
34.54
35.65
37.43
39.56
41.65
43.39
44.59
45.28
45.47
45.21
44.43
42.95
40.61
37.30
33.10
28.32
23.43
18.92
15.15
12.20
9.90
7.97
6.01
3.68
0.77
-2.87
-7.19
-12.05
-17.11
-21.88
-25.86
-28.65
-30.08
-30.22
-29.27
-27.46
-24.96
-21.83
-18.14
-14.08
-9.93
-6.05
-2.72
-0.18
1.50
2.37
2.59
2.37
2.03
1.82
1.91
2.41
3.27
4.39
5.65
6.99
8.32
9.55
10.59
11.29
11.48
11.10
10.15
8.67
6.71
4.27
1.38
-1.86
-5.27
-8.62
-11.69
-14.51
-17.30
-20.39
-24.06
-28.24
-32.43
-35.82
-37.50
-36.77
-33.38
-27.59
-20.08
-11.72
-3.36
4.27
10.70
15.71
19.29
21.52
22.61
22.66
21.79
20.12
17.87
15.35
12.94
10.92
9.42
8.41
7.70
7.11
6.58
6.16
5.88
5.77
5.73
5.61
5.32
4.76
3.83
2.48
0.58
-1.89
-4.90
-8.26
-11.76
-15.22
-18.65
-22.20
-26.06
-30.27
-34.59
-38.59
-41.68
-43.35
-43.22
-41.20
-37.40
-32.17
-26.00
-19.38
-12.82
-6.67
-1.23
3.26
6.71
8.97
10.05
10.01
9.00
7.29
5.26
3.27
1.66
0.71
0.50
0.99
1.99
3.25
4.53
5.70
6.75
7.68
8.44
8.89
8.77
7.87
6.09
3.57
0.64
-2.40
-5.36
-8.24
-11.25
-14.61
-18.40
-22.59
-27.03
-31.56
-36.04
-40.30
-43.99
-46.54
-47.23
-45.33
-40.48
-32.87
-23.27
-12.84
-2.78
6.00
13.05
18.44
22.42
25.28
27.13
27.89
27.51
26.06
23.95
21.66
19.76
18.60
18.24
18.48
18.98
19.43
19.65
19.66
19.51
19.26
18.87
18.21
17.11
15.44
13.17
10.47
7.55
4.66
1.95
-0.59
-3.21
-6.15
-9.70
-14.01
-19.04
-24.66
-30.63
-36.53
-41.75
-45.45
-46.72
-44.84
-39.58
-31.37
-21.23
-10.47
-0.28
8.55
15.71
21.21
25.14
27.56
28.49
28.01
26.37
24.03
21.61
19.58
18.32
17.88
18.22
19.20
20.69
22.56
24.65
26.64
28.17
28.92
28.67
27.43
25.32
22.58
19.47
16.19
12.88
9.53
6.11
2.48
-1.46
-5.72
-10.12
-14.28
-17.90
-20.83
-23.36
-25.99
-29.37
-33.81
-39.02
-44.12
-47.85
-49.05
-47.01
-41.79
-33.99
-24.62
-14.68
-4.97
3.99
11.88
18.41
23.52
27.10
29.24
30.10
29.93
29.00
27.62
26.09
24.71
23.75
23.35
23.51
24.05
24.73
25.27
25.48
25.31
24.78
23.95
22.83
21.34
19.35
16.76
13.58
9.90
5.92
1.76
-2.57
-7.08
-11.73
-16.32
-20.58
-24.23
-27.27
-29.98
-32.74
-35.81
-39.07
-41.82
-43.08
-41.95
-37.97
-31.32
-22.73
-13.21
-3.69
5.09
12.70
18.97
23.86
27.39
29.62
30.67
30.62
29.73
28.22
26.38
24.49
22.79
21.43
20.49
19.94
19.58
19.23
18.65
17.75
16.56
15.24
13.95
12.78
11.52
9.90
7.62
4.56
0.86
-3.12
-7.00
-10.53
-13.62
-16.45
-19.26
-22.35
-25.85
-29.80
-33.95
-37.79
-40.56
-41.45
-39.71
-35.00
-27.47
-17.71
-6.68
4.55
15.01
23.99
31.04
35.92
38.61
39.20
37.98
35.44
32.09
28.51
25.12
22.21
19.94
18.30
17.21
16.58
16.33
16.36
16.58
16.83
16.96
16.85
16.38
15.51
14.15
12.25
9.80
6.84
3.44
-0.17
-3.85
-7.46
-10.97
-14.55
-18.36
-22.57
-27.20
-32.06
-36.72
-40.52
-42.68
-42.42
-39.25
-33.09
-24.40
-14.10
-3.37
6.68
15.23
21.90
26.67
29.65
31.06
31.01
29.68
27.40
24.61
21.82
19.38
17.40
15.65
13.94
12.07
10.12
8.42
7.27
6.79
6.75
6.72
6.21
5.02
3.14
0.84
-1.54
-3.80
-5.95
-8.13
-10.49
-13.13
-16.12
-19.49
-23.34
-27.77
-32.68
-37.61
-41.68
-43.81
-43.00
-38.80
-31.46
-21.89
-11.43
-1.44
7.09
13.69
18.33
21.27
22.89
23.52
23.38
22.69
21.59
20.22
18.72
17.17
15.65
14.20
12.86
11.62
10.56
9.77
9.30
9.10
8.98
8.69
7.90
6.47
4.38
1.79
-1.09
-4.10
-7.29
-10.90
-15.22
-20.46
-26.53
-32.95
-38.87
-43.24
-45.04
-43.56
-38.65
-30.78
-20.90
-10.22
0.09
9.16
16.48
21.94
25.74
28.20
29.64
30.23
30.00
28.95
27.05
24.43
21.36
18.25
15.55
13.58
12.39
11.86
11.63
11.27
10.45
8.95
6.80
4.17
1.30
-1.65
-4.60
-7.64
-10.89
-14.50
-18.59
-23.23
-28.41
-33.99
-39.52
-44.28
-47.27
-47.54
-44.47
-38.07
-29.04
-18.63
-8.16
1.29
9.13
15.22
19.73
22.88
24.85
25.73
25.65
24.83
23.49
21.93
20.34
18.82
17.45
16.23
15.20
14.40
13.89
13.68
13.67
13.70
13.45
12.56
10.68
7.69
3.70
-0.85
-5.41
-9.45
-12.77
-15.46
-17.94
-20.74
-24.35
-28.97
-34.39
-39.98
-44.77
-47.69
-47.86
-44.82
-38.69
-30.25
-20.56
-10.73
-1.63
6.24
12.71
17.77
21.46
23.85
24.94
24.86
23.87
22.31
20.60
19.09
18.00
17.43
17.34
17.61
18.11
18.68
19.18
19.48
19.41
18.82
17.56
15.48
12.53
8.77
4.40
-0.31
-4.98
-9.38
-13.34
-16.87
-20.10
-23.29
-26.72
-30.58
-34.88
-39.18
-42.71
-44.45
-43.47
-39.28
-32.12
-22.88
-12.79
-3.09
5.39
12.28
17.60
21.52
24.21
25.69
25.99
25.18
23.53
21.41
19.25
17.40
15.99
15.04
14.44
14.07
13.83
13.70
13.62
13.48
13.03
11.99
10.19
7.64
4.59
1.41
-1.60
-4.28
-6.77
-9.37
-12.45
-16.33
-21.17
-26.88
-33.08
-39.08
-43.82
-46.24
-45.39
-40.96
-33.30
-23.39
-12.54
-1.96
7.38
14.98
20.64
24.44
26.55
27.21
26.75
25.50
23.76
21.73
19.57
17.35
15.18
13.17
11.49
10.27
9.58
9.37
9.42
9.50
9.27
8.46
6.85
4.31
0.97
-2.92
-6.92
-10.59
-13.67
-16.18
-18.46
-21.08
-24.59
-29.26
-34.88
-40.69
-45.45
-47.93
-47.13
-42.73
-35.14
-25.40
-14.85
-4.63
4.46
12.13
18.35
23.28
26.99
29.54
30.95
31.30
30.82
29.83
28.72
27.78
27.19
26.96
27.09
27.46
27.95
28.54
29.15
29.67
29.88
29.48
28.28
26.21
23.39
20.01
16.31
12.37
8.17
3.68
-1.14
-6.15
-11.12
-15.82
-20.11
-23.95
-27.46
-30.84
-34.41
-38.48
-43.12
-48.07
-52.58
-55.53
-55.80
-52.68
-46.13
-36.87
-26.11
-15.05
-4.66
4.55
12.43
18.94
24.11
27.99
30.62
32.07
32.50
32.14
31.22
30.06
28.90
27.93
27.25
26.84
26.68
26.66
26.77
26.98
27.29
27.57
27.69
27.40
26.40
24.52
21.69
18.05
13.93
9.78
5.97
2.72
0.01
-2.44
-4.93
-7.67
-10.65
-13.75
-16.67
-19.25
-21.51
-23.62
-25.97
-28.92
-32.83
-37.80
-43.67
-49.87
-55.44
-59.22
-60.04
-57.29
-50.99
-41.95
-31.39
-20.62
-10.65
-2.01
5.23
11.29
16.36
20.60
24.08
26.80
28.79
30.10
30.76
30.85
30.50
29.81
28.96
28.03
27.15
26.43
26.02
25.95
26.17
26.45
26.46
25.91
24.58
22.47
19.83
16.99
14.24
11.69
9.24
6.71
3.84
0.48
-3.38
-7.59
-11.91
-16.12
-20.02
-23.50
-26.58
-29.44
-32.33
-35.54
-39.27
-43.45
-47.64
-51.11
-52.85
-51.99
-47.96
-40.91
-31.58
-21.25
-11.27
-2.73
3.80
8.38
11.40
13.40
14.71
15.38
15.30
14.34
12.61
10.42
8.24
6.48
5.39
5.02
5.22
5.87
6.82
7.98
9.21
10.36
11.21
11.62
11.47
10.67
9.17
6.93
4.01
0.60
-3.07
-6.60
-9.76
-12.44
-14.77
-17.05
-19.67
-22.95
-26.94
-31.37
-35.56
-38.59
-39.49
-37.57
-32.63
-25.13
-16.00
-6.33
2.88
10.97
17.62
22.80
26.53
28.91
29.98
29.85
28.75
26.97
24.90
22.93
21.40
20.51
20.27
20.47
20.88
21.23
21.43
21.54
21.71
21.98
22.16
21.88
20.64
18.20
14.63
10.32
5.86
1.71
-1.97
-5.31
-8.62
-12.22
-16.25
-20.72
-25.57
-30.72
-36.07
-41.35
-46.01
-49.23
-50.02
-47.55
-41.53
-32.34
-21.00
-8.94
2.49
12.26
19.90
25.45
29.29
31.78
33.25
33.80
33.41
32.13
30.12
27.68
25.21
23.08
21.39
20.15
19.18
18.33
17.59
17.07
16.93
17.22
17.81
18.31
18.33
17.45
15.50
12.54
8.71
4.23
-0.71
-5.93
-11.29
-16.58
-21.64
-26.48
-31.26
-36.36
-42.08
-48.40
-54.75
-60.12
-63.23
-63.07
-59.20
-51.97
-42.43
-31.84
-21.33
-11.61
-2.97
4.58
11.01
16.20
20.02
22.28
23.12
22.88
22.11
21.34
20.92
20.87
20.95
20.97
20.75
20.37
20.00
19.82
19.90
20.14
20.34
20.22
19.62
18.40
16.51
13.98
10.88
7.38
3.67
-0.12
-3.97
-7.86
-11.92
-16.27
-21.04
-26.32
-32.08
-38.14
-43.98
-48.80
-51.54
-51.26
-47.38
-40.04
-30.15
-19.05
-8.19
1.26
8.77
14.34
18.22
20.77
22.29
22.87
22.68
21.90
20.86
19.85
19.08
18.59
18.25
17.93
17.44
16.70
15.72
14.62
13.48
12.40
11.30
10.03
8.37
6.06
3.03
-0.62
-4.58
-8.49
-12.02
-14.99
-17.40
-19.45
-21.50
-23.97
-27.27
-31.70
-37.23
-43.33
-48.99
-52.97
-54.03
-51.45
-45.16
-35.93
-25.03
-13.86
-3.53
5.22
12.10
17.18
20.52
22.39
22.84
22.17
20.68
18.78
16.85
15.12
13.66
12.27
10.86
9.29
7.73
6.42
5.63
5.43
5.56
5.65
5.15
3.65
0.97
-2.87
-7.60
-12.90
-18.37
-23.69
-28.63
-33.18
-37.53
-41.99
-47.00
-52.82
-59.43
-66.16
-71.88
-75.04
-74.23
-68.61
-58.24
-44.22
-28.23
-12.15
2.59
15.16
25.43
33.51
39.62
43.88
46.27
46.88
45.99
44.08
41.65
39.15
36.76
34.56
32.52
30.65
29.08
27.98
27.40
27.20
27.06
26.56
25.38
23.43
20.80
17.74
14.50
11.25
8.06
4.92
1.72
-1.70
-5.52
-9.84
-14.41
-18.60
-21.41
-21.62
-18.19
-10.68
0.58
14.68
30.20
45.77
60.20
72.71
82.94
91.00
97.19
101.96
105.74
108.76
111.08
112.67
113.46
113.56
113.28
112.97
112.87
112.80
111.86
108.39
100.15
84.86
60.99
28.72
-9.82
-50.63
-88.82
-119.69
-139.66
-146.85
-141.29
-124.68
-100.24
-72.24
-45.19
-22.89
-7.58
0.75
3.98
4.86
6.06
