1675670377.00
64.000000
-0.00
-0.00
-0.00
-0.00
-0.00
-0.00
-0.00
-0.00
-0.00
-0.00
0.00
0.01
0.01
-0.00
-0.03
-0.05
-0.05
0.00
0.13
0.36
0.66
1.01
1.37
1.72
2.06
2.40
2.79
3.24
3.80
4.42
5.06
5.66
6.20
6.68
7.15
7.68
8.31
9.14
10.09
11.04
11.88
12.56
13.14
13.76
14.65
15.96
17.91
20.32
22.90
25.38
27.58
29.57
31.68
34.32
37.81
42.54
48.15
54.10
59.83
64.97
69.58
74.14
79.34
85.71
93.76
103.00
112.62
121.73
129.77
136.75
143.30
150.75
157.77
166.64
177.95
191.79
206.97
220.57
228.25
225.36
208.53
176.87
132.76
80.05
23.07
-34.94
-92.44
-149.16
-205.23
-260.37
-313.74
-363.87
-409.83
-450.91
-486.50
-515.74
-537.23
-549.22
-549.96
-538.37
-514.21
-478.67
-433.88
-382.45
-327.02
-269.84
-212.63
-156.66
-102.95
-52.37
-5.90
35.58
71.43
101.35
125.50
144.38
158.69
169.15
176.37
180.75
182.57
182.07
179.51
175.23
169.65
163.18
156.15
148.81
141.30
133.69
126.02
118.33
110.69
103.16
95.80
88.68
81.83
75.25
68.95
62.95
57.25
51.86
46.78
42.03
37.59
33.45
29.61
26.07
22.81
19.83
17.11
14.67
12.48
10.54
8.83
7.35
6.07
4.97
4.05
3.27
2.62
2.09
1.65
1.30
1.01
0.79
0.61
0.48
0.38
0.30
0.25
0.22
0.21
0.20
0.21
0.23
0.26
0.28
0.32
0.35
0.39
0.42
0.45
0.49
0.52
0.56
0.60
0.64
0.69
0.74
0.80
0.87
0.94
1.02
1.12
1.22
1.34
1.48
1.63
1.81
2.00
2.22
2.47
2.75
3.06
3.40
3.78
4.19
4.63
5.11
5.62
6.16
6.73
7.34
7.98
8.64
9.34
10.06
10.81
11.59
12.41
13.28
14.20
15.18
16.20
17.25
18.29
19.26
20.08
20.64
20.82
20.50
19.57
17.96
15.65
12.70
9.20
5.30
1.21
-2.82
-6.56
-9.74
-12.15
-13.64
-14.12
-13.57
-12.08
-9.81
-6.99
-3.89
-0.72
2.36
5.29
8.12
10.92
13.78
16.74
19.73
22.60
25.22
27.42
29.07
30.07
30.31
29.65
27.91
24.69
19.72
12.92
4.51
-5.02
-14.96
-24.59
-33.28
-40.61
-46.75
-51.94
-56.32
-59.81
-62.05
-62.52
-60.79
-56.77
-50.79
-44.20
-38.36
-34.29
-32.43
-32.54
-33.93
-35.79
-37.54
-38.97
-41.08
-45.04
-52.08
-63.40
-79.83
-101.44
-127.32
-155.95
-180.37
-195.97
-200.09
-192.70
-176.15
-154.00
-129.39
-104.04
-78.01
-50.43
-21.28
8.89
38.83
66.91
91.57
111.53
125.92
134.34
136.98
134.08
126.32
114.64
100.04
83.73
67.24
52.46
41.33
35.38
34.77
38.57
44.94
51.74
57.22
60.36
60.87
58.90
54.74
48.38
39.67
28.63
15.55
1.18
-13.46
-27.40
-40.05
-51.38
-61.85
-71.80
-81.05
-88.78
-93.80
-95.03
-92.17
-85.84
-77.35
-68.15
-59.20
-50.70
-42.14
-32.71
-21.65
-8.63
6.21
22.22
38.57
54.41
69.09
82.02
92.60
99.96
103.10
101.27
94.53
84.01
71.81
60.29
51.22
45.13
41.32
38.41
35.16
30.96
25.84
20.09
13.82
6.83
-1.27
-10.72
-21.35
-32.59
-43.53
-53.20
-60.80
-65.63
-67.16
-64.96
-58.91
-49.28
-36.82
-22.64
-7.95
6.35
19.69
31.98
43.26
53.55
62.67
70.23
75.94
79.75
81.96
83.20
84.15
85.30
86.66
87.66
87.32
84.66
79.11
70.85
60.87
50.56
41.28
33.91
28.71
25.27
22.82
20.40
17.07
12.10
5.13
-3.79
-14.18
-25.24
-36.16
-46.31
-55.44
-63.66
-71.37
-79.11
-87.19
-95.36
-102.59
-107.13
-106.95
-100.51
-87.38
-68.48
-45.88
-22.07
0.62
20.56
36.87
49.24
57.77
62.89
65.25
65.68
65.14
64.49
64.39
65.22
67.12
69.99
73.66
77.99
82.82
87.83
92.27
94.82
93.84
87.86
76.33
59.98
40.63
20.49
1.27
-16.35
-32.70
-48.47
-64.13
-79.42
-93.56
-105.52
-114.46
-119.78
-121.09
-118.10
-110.86
-99.99
-86.89
-73.47
-61.64
-52.52
-46.12
-41.49
-37.21
-32.14
-25.84
-18.54
-10.91
-3.59
3.01
8.71
13.41
16.97
19.17
19.83
19.01
17.10
14.87
13.33
13.45
15.90
20.85
27.94
36.40
45.39
54.08
61.76
67.77
71.38
71.97
69.27
63.66
56.19
48.28
41.19
35.58
31.39
28.14
25.34
22.87
20.94
19.87
19.75
20.37
21.32
22.27
23.08
23.78
24.37
24.74
24.60
23.63
21.74
19.12
16.19
13.43
11.18
9.50
8.06
6.27
3.41
-1.15
-7.71
-16.15
-25.99
-36.51
-47.03
-57.11
-66.55
-75.31
-83.39
-90.55
-96.32
-100.00
-100.92
-98.64
-93.10
-84.60
-73.76
-61.32
-48.10
-34.83
-22.20
-10.72
-0.71
7.83
15.15
21.68
27.76
33.56
38.89
43.31
46.28
47.41
46.56
43.86
39.63
34.29
28.32
22.15
16.18
10.69
5.83
1.51
-2.56
-6.77
-11.47
-16.84
-22.72
-28.63
-33.79
-37.31
-38.37
-36.44
-31.43
-23.75
-14.17
-3.67
6.79
16.45
24.92
32.21
38.69
44.87
51.14
57.44
63.23
67.67
69.95
69.75
67.32
63.38
58.75
54.04
49.49
45.14
41.00
37.30
34.41
32.63
32.00
32.20
32.68
32.80
32.02
29.98
26.51
21.68
15.81
9.49
3.46
-1.66
-5.55
-8.37
-10.58
-12.72
-15.06
-17.47
-19.51
-20.85
-21.49
-21.83
-22.45
-23.69
-25.33
-26.37
-25.35
-20.81
-11.92
1.08
16.85
33.30
48.38
60.72
70.19
78.00
86.57
98.91
117.98
145.73
182.30
225.27
269.72
308.99
336.25
346.27
337.04
310.25
270.58
224.02
176.11
130.66
89.47
52.82
20.28
-8.59
-34.03
-56.08
-74.89
-90.77
-104.14
-115.29
-124.30
-130.96
-135.03
-136.46
-135.63
-133.45
-131.14
-129.86
-130.26
-132.26
-135.04
-137.56
-139.01
-139.17
-138.34
-136.97
-135.21
-132.76
-129.10
-123.78
-116.77
-108.53
-99.76
-91.12
-83.07
-75.86
-69.61
-64.41
-60.29
-57.23
-55.09
-53.54
-52.18
-50.57
-48.38
-45.47
-41.99
-38.34
-35.07
-32.62
-31.15
-30.41
-29.85
-28.89
-27.19
-24.84
-22.23
-19.94
-18.37
-17.68
-17.73
-18.24
-18.81
-19.09
-18.71
-17.36
-14.94
-11.74
-8.44
-6.07
-5.65
-7.72
-12.07
-17.76
-23.41
-27.74
-29.95
-29.91
-28.06
-25.10
-21.71
-18.36
-15.32
-12.60
-10.06
-7.48
-4.55
-1.01
3.21
7.93
12.65
16.70
19.39
20.20
19.01
16.15
12.32
8.43
5.30
3.43
2.74
2.72
2.61
1.77
-0.02
-2.53
-5.22
-7.61
-9.48
-10.96
-12.37
-13.94
-15.76
-17.75
-19.80
-21.95
-24.31
-26.99
-30.00
-33.15
-36.14
-38.72
-40.71
-42.06
-42.73
-42.52
-41.06
-37.92
-32.84
-25.95
-17.89
-9.64
-2.21
3.73
8.03
11.10
13.48
15.66
17.75
19.56
20.77
21.18
20.87
20.09
19.17
18.33
17.66
17.16
16.81
16.67
16.80
17.20
17.72
18.09
18.02
17.33
16.04
14.40
12.70
11.24
10.12
9.27
8.47
7.40
5.80
3.55
0.71
-2.44
-5.60
-8.50
-11.09
-13.51
-16.05
-18.98
-22.43
-26.29
-30.19
-33.54
-35.64
-35.80
-33.55
-28.82
-22.01
-13.95
-5.65
1.95
8.22
12.95
16.27
18.51
19.99
20.89
21.23
21.02
20.29
19.20
17.96
16.80
15.84
15.13
14.65
14.36
14.30
14.50
14.93
15.47
15.85
15.78
15.00
13.50
11.42
9.08
6.81
4.80
3.06
1.40
-0.45
-2.68
-5.26
-8.00
-10.57
-12.72
-14.38
-15.70
-17.00
-18.63
-20.87
-23.79
-27.26
-30.89
-34.06
-36.03
-36.08
-33.75
-28.96
-22.06
-13.80
-5.06
3.28
10.55
16.35
20.48
22.98
24.00
23.84
22.86
21.47
20.04
18.79
17.80
16.98
16.14
15.12
13.86
12.47
11.16
10.15
9.55
9.27
9.02
8.46
7.37
5.81
4.08
2.62
1.70
1.33
1.12
0.53
-0.88
-3.22
-6.23
-9.38
-12.21
-14.54
-16.54
-18.59
-21.07
-24.15
-27.73
-31.55
-35.22
-38.39
-40.66
-41.64
-40.95
-38.33
-33.80
-27.69
-20.60
-13.26
-6.31
-0.24
4.75
8.61
11.46
13.44
14.72
15.50
15.87
15.91
15.57
14.80
13.66
12.33
11.11
10.30
10.06
10.34
10.91
11.51
11.98
12.25
12.36
12.29
11.97
11.28
10.12
8.52
6.60
4.56
2.52
0.54
-1.38
-3.28
-5.14
-6.94
-8.66
-10.29
-11.95
-13.80
-16.06
-18.94
-22.46
-26.44
-30.45
-33.85
-35.91
-35.98
-33.68
-28.96
-22.19
-14.01
-5.21
3.38
11.10
17.43
22.14
25.21
26.80
27.13
26.53
25.34
23.84
22.26
20.72
19.23
17.74
16.22
14.70
13.27
12.10
11.35
11.03
11.04
11.13
11.02
10.53
9.66
8.51
7.26
5.95
4.51
2.76
0.54
-2.14
-5.10
-8.02
-10.67
-12.95
-14.97
-16.95
-19.11
-21.62
-24.54
-27.81
-31.28
-34.67
-37.56
-39.43
-39.75
-38.12
-34.36
-28.60
-21.25
-12.93
-4.42
3.46
10.01
14.81
17.76
19.09
19.24
18.66
17.69
16.55
15.36
14.27
13.41
12.89
12.78
13.10
13.89
15.20
17.10
19.57
22.43
25.35
28.03
30.38
32.63
35.21
38.45
42.41
46.72
50.87
54.52
57.33
59.52
61.91
65.54
71.27
79.73
91.44
106.85
126.17
148.09
170.15
189.25
202.51
208.21
206.35
198.67
187.95
177.06
166.86
157.27
148.12
139.54
131.66
124.08
115.84
105.32
91.00
68.94
37.66
0.15
-36.49
-64.42
-78.55
-78.32
-67.44
-51.65
-43.17
-50.39
-73.72
-106.33
-139.65
-168.10
-190.17
-207.00
-219.32
-237.85
-269.68
-313.50
-360.72
-402.30
-434.04
-456.86
-474.37
-488.76
-515.81
-566.81
-642.19
-732.57
-827.23
-920.69
-1012.92
-1106.18
-1125.23
-1029.37
-832.81
-596.98
-381.14
-211.27
-84.60
14.35
88.35
157.73
219.09
263.59
287.57
296.31
298.93
303.10
312.65
327.77
349.60
366.31
368.70
356.07
336.06
318.14
307.89
306.11
310.78
320.64
326.51
321.90
306.32
284.86
263.66
246.55
234.25
225.51
219.45
210.88
196.06
174.53
148.97
123.00
99.53
79.95
64.37
52.51
41.79
29.94
16.06
1.02
-13.17
-23.70
-28.25
-25.71
-16.35
-2.05
14.75
31.90
48.24
63.90
81.38
103.14
130.64
164.03
202.66
245.27
289.43
330.80
363.16
382.78
387.05
375.60
350.86
317.95
283.06
250.33
220.28
190.31
162.11
138.57
123.46
120.37
131.68
157.44
194.61
237.52
279.67
322.56
368.04
415.33
459.72
494.97
516.59
523.85
519.66
474.96
380.01
245.63
98.94
-33.95
-139.95
-217.98
-272.71
-307.39
-332.18
-347.99
-354.79
-354.69
-352.34
-352.41
-358.07
-368.90
-384.40
-404.87
-425.30
-443.05
-459.41
-479.44
-507.07
-542.08
-579.02
-609.38
-624.53
-614.18
-574.88
-511.68
-436.89
-362.13
-294.80
-236.90
-187.49
-144.87
-104.50
-64.06
-23.91
12.39
44.04
72.11
98.44
123.31
145.49
165.87
184.47
200.07
208.46
208.91
202.59
191.75
177.56
145.52
88.98
11.71
-59.27
-116.91
-159.84
-192.90
-217.11
-233.42
-243.05
-245.01
-239.11
-226.60
-212.24
-197.88
-183.85
-169.37
-154.28
-138.82
-121.62
-101.95
-80.35
-60.24
-42.96
-28.76
-16.99
-7.46
-0.11
6.15
12.08
17.62
21.00
21.76
20.24
17.45
14.18
11.19
9.72
10.74
14.73
21.12
29.77
40.71
54.06
69.61
86.92
105.53
124.70
143.50
160.58
174.88
185.60
192.16
194.18
191.48
184.16
172.53
157.10
138.53
117.50
94.70
70.69
45.98
20.93
-4.15
-29.00
-53.40
-77.13
-100.02
-121.88
-142.56
-161.88
-179.61
-195.42
-208.90
-219.60
-227.14
-231.20
-231.64
-228.52
-222.00
-212.34
-199.75
-184.41
-166.43
-145.96
-123.32
-99.10
-74.13
-49.35
-25.58
-3.26
17.67
37.69
57.45
77.37
97.47
117.25
135.97
153.10
168.64
183.34
198.42
215.04
233.72
254.02
274.61
293.94
310.95
325.67
339.19
353.09
368.71
386.65
406.78
428.76
452.23
476.60
500.33
520.64
534.00
537.55
530.51
514.56
492.70
467.10
437.58
401.67
356.47
300.83
236.81
169.08
102.64
40.15
-19.33
-79.30
-142.78
-209.27
-273.43
-326.55
-360.06
-369.40
-356.18
-327.76
-294.41
-265.61
-247.92
-244.12
-254.29
-277.07
-310.06
-349.13
-387.95
-418.83
-435.07
-433.49
-415.56
-386.39
-352.15
-317.32
-283.22
-248.55
-211.13
-169.54
-123.73
-74.51
-22.99
29.45
80.32
125.34
159.07
176.95
177.99
166.39
151.02
142.31
148.12
170.73
205.69
243.81
274.84
291.30
290.73
275.84
252.60
227.76
206.54
191.46
182.35
177.25
173.61
169.29
163.03
154.40
143.52
130.82
116.82
102.24
87.88
74.56
62.88
52.87
43.87
34.73
24.23
11.64
-2.83
-18.06
-32.40
-44.33
-52.90
-58.08
-60.59
-61.51
-61.93
-62.63
-63.96
-65.98
-68.56
-71.46
-74.26
-76.32
-76.82
-75.04
-70.57
-63.52
-54.44
-44.13
-33.34
-22.66
-12.61
-3.69
3.56
8.73
11.85
13.51
14.64
15.96
17.44
18.22
17.10
13.70
9.23
6.57
9.20
19.62
37.88
61.15
84.72
103.90
115.82
119.83
117.53
110.88
100.81
86.95
68.96
48.10
27.98
13.54
7.98
11.57
21.45
34.01
47.69
64.11
86.29
115.03
146.73
172.20
182.27
172.49
146.20
113.40
85.92
71.54
70.87
79.92
89.69
95.01
95.33
94.10
95.66
102.34
113.15
124.56
135.71
141.35
141.32
136.69
128.37
116.16
98.85
75.02
44.32
13.87
-16.73
-42.21
-57.98
-61.15
-51.54
-30.81
-2.37
29.68
69.36
108.89
146.62
180.25
207.34
225.63
235.28
237.55
196.95
164.02
134.74
109.98
89.33
72.59
59.42
51.77
50.75
55.97
75.53
103.66
138.21
174.46
206.64
228.70
239.11
238.77
207.86
145.09
54.30
-44.69
-132.61
-191.35
-228.13
-251.35
-266.80
-278.32
-281.77
-279.12
-271.83
-263.70
-258.84
-260.86
-268.81
-280.46
-293.66
-302.73
-306.85
-306.52
-304.65
-304.93
-311.31
-324.52
-343.84
-367.20
-388.75
-403.29
-406.47
-396.75
-375.67
-347.50
-316.26
-285.38
-256.99
-230.73
-205.48
-180.50
-155.82
-131.96
-109.65
-88.93
-70.13
-54.17
-42.09
-34.68
-32.00
-33.14
-36.51
-40.43
-43.41
-44.46
-43.06
-39.10
-33.00
-25.99
-20.01
-16.98
-17.92
-22.13
-27.33
-30.53
-29.35
-23.07
-12.74
-0.57
11.10
20.76
28.05
33.69
39.10
46.11
56.62
72.13
92.85
116.91
139.90
155.45
156.96
140.15
105.39
58.40
8.84
-32.95
-59.67
-69.49
-65.99
-55.97
-46.18
-40.91
-41.22
-45.85
-52.56
-59.28
-64.45
-67.01
-66.28
-62.24
-55.88
-49.12
-44.19
-42.50
-43.99
-47.05
-49.24
-48.40
-43.52
-35.08
-24.68
-14.41
-6.21
-1.53
-1.19
-5.43
-14.00
-26.23
-41.16
-57.97
-76.54
-97.91
-123.99
-156.42
-194.87
-235.95
-273.58
-301.02
-313.63
-310.92
-296.51
-276.24
-255.19
-235.71
-217.14
-197.38
-174.78
-149.42
-122.73
-96.24
-70.58
-45.47
-20.90
1.72
19.37
28.62
27.49
16.76
-0.16
-19.00
-36.82
-53.03
-68.82
-85.22
-101.31
-113.96
-119.30
-115.11
-102.45
-85.42
-69.07
-56.73
-48.52
-41.72
-32.60
-18.85
-0.53
20.18
40.65
59.43
77.10
95.82
118.33
147.01
183.07
226.17
273.81
320.88
359.95
382.86
383.59
361.05
320.06
269.99
221.57
183.20
159.12
149.60
152.78
166.38
188.22
215.49
243.78
267.48
281.43
283.26
274.66
260.62
247.23
238.71
235.68
235.27
232.96
225.03
210.32
190.66
169.57
150.44
135.10
123.40
114.12
105.99
98.63
92.56
88.46
86.43
85.70
85.08
83.89
82.67
83.08
86.92
95.01
106.68
119.94
132.14
140.75
143.60
139.10
126.30
105.16
76.86
43.79
9.02
-24.55
-54.96
-81.42
-103.97
-122.89
-138.21
-149.67
-157.05
-160.32
-159.70
-155.50
-148.07
-137.97
-126.08
-113.64
-101.93
-91.97
-84.20
-78.41
-73.95
-70.06
-66.18
-62.04
-57.63
-53.13
-48.79
-44.93
-41.82
-39.72
-38.75
-38.80
-39.44
-40.03
-39.95
-38.74
-36.38
-33.18
-29.75
-26.70
-24.42
-23.06
-22.48
-22.42
-22.56
-22.70
-22.66
-22.33
-21.66
-20.62
-19.20
-17.37
-15.06
-12.15
-8.61
-4.44
0.18
4.90
9.22
12.62
14.76
15.60
15.51
15.17
15.26
16.29
18.28
20.83
23.18
24.56
24.38
22.41
18.78
13.95
8.60
3.45
-0.73
-3.36
-4.14
-3.08
-0.54
2.83
6.31
9.17
10.78
10.77
9.00
5.67
1.31
-3.36
-7.58
-10.83
-12.89
-13.94
-14.24
-14.02
-13.30
-11.84
-9.47
-6.24
-2.62
0.68
2.84
3.34
2.04
-0.68
-3.97
-6.78
-8.01
-6.94
-3.46
1.75
7.42
12.12
14.74
14.79
12.49
8.58
4.03
-0.20
-3.51
-5.97
-8.51
-12.66
-20.00
-31.50
-46.95
-65.04
-84.12
-102.91
-120.95
-138.43
-155.41
-171.11
-183.82
-191.66
-193.66
-190.47
-184.06
-176.63
-169.51
-162.43
-154.01
-142.64
-127.57
-109.53
-90.57
-73.40
-60.22
-52.11
-48.68
-47.61
-44.87
-35.59
-15.94
14.84
53.14
91.86
122.05
135.86
129.37
103.85
65.20
21.74
-18.36
-48.95
-65.50
-66.08
-51.27
-23.73
12.41
52.11
89.95
121.06
142.00
153.56
159.14
162.74
167.49
174.88
184.91
196.65
209.24
222.07
237.25
256.42
278.06
297.66
309.89
311.22
301.16
282.11
245.86
191.71
126.25
59.85
1.69
-43.41
-74.72
-94.35
-106.43
-117.75
-132.82
-152.88
-177.12
-201.80
-220.68
-226.72
-215.35
-178.86
-120.00
-51.99
16.81
79.83
130.96
164.07
175.47
164.83
135.42
93.10
46.47
3.52
-32.50
-63.09
-92.06
-122.52
-156.09
-192.83
-232.02
-272.37
-312.69
-351.39
-384.37
-404.15
-401.55
-371.06
-314.59
-241.77
-167.77
-108.69
-75.51
-70.94
-90.32
-120.51
-148.64
-175.14
-201.50
-222.76
-234.73
-233.98
-219.63
-194.01
-162.15
-130.29
-103.20
-81.38
-63.03
-46.65
-31.15
-16.19
-1.73
12.78
27.84
43.93
62.56
85.01
111.53
142.06
175.68
209.91
240.60
262.24
270.18
263.62
245.84
222.80
201.12
185.15
175.38
168.87
161.49
150.59
136.77
122.86
111.68
104.27
99.24
93.75
85.42
73.82
60.71
49.23
41.81
38.76
38.14
36.92
32.74
25.37
17.00
11.02
10.19
15.09
23.74
32.61
38.36
39.29
35.96
30.49
25.30
21.98
20.72
20.55
20.10
18.35
15.05
10.62
5.81
1.18
-3.06
-7.12
-11.29
-15.69
-20.03
-23.81
-26.38
-27.22
-26.14
-23.24
-18.91
-13.76
-8.64
-4.46
-1.87
-0.87
-0.63
0.24
3.09
8.38
15.34
22.17
26.83
28.00
25.66
20.95
15.54
10.78
7.32
5.11
3.91
3.56
4.07
5.35
6.96
8.19
8.36
7.08
4.51
1.18
-2.19
-4.83
-6.04
-5.23
-2.14
2.96
9.10
14.98
19.56
22.59
24.73
26.96
29.78
32.63
34.00
32.19
26.31
16.74
4.99
-6.84
-16.76
-23.01
-24.19
-19.03
-6.63
12.71
36.99
62.32
83.71
96.65
98.65
90.04
73.41
52.03
28.35
3.52
-21.67
-45.27
-63.37
-70.81
-63.41
-40.46
-6.03
32.07
65.40
87.72
96.85
94.58
85.07
73.06
62.58
56.37
55.80
61.14
71.71
86.38
104.01
123.09
141.57
156.36
163.41
159.11
141.63
112.02
74.04
32.70
-7.82
-45.26
-78.82
-108.16
-132.47
-151.24
-165.30
-177.07
-189.16
-202.01
-212.28
-213.86
-201.19
-172.99
-134.23
-94.26
-62.12
-41.67
-29.72
-18.51
-0.75
25.43
55.00
78.39
86.26
73.50
40.12
-9.96
-71.36
-138.58
-205.99
-266.91
-313.76
-339.46
-339.94
-316.32
-274.73
-224.04
-172.51
-124.95
-81.83
-40.51
2.37
48.66
97.38
144.91
185.91
214.98
228.33
225.09
207.81
181.73
153.47
129.05
112.44
104.82
104.69
108.59
111.74
108.96
95.73
69.89
33.55
-6.14
-38.62
-53.78
-46.48
-19.25
18.37
53.96
77.43
84.29
75.76
56.39
30.92
2.98
-23.80
-44.50
-52.91
-43.63
-15.33
27.26
74.27
114.34
139.00
145.45
136.26
116.65
91.04
61.10
25.77
-16.30
-64.55
-116.14
-167.37
-215.59
-259.91
-300.51
-336.72
-366.14
-384.83
-388.77
-375.44
-344.53
-297.26
-235.36
-161.41
-80.40
-1.26
64.51
106.91
122.38
116.64
103.29
98.34
113.49
151.58
205.24
261.90
309.59
341.38
356.19
357.13
349.01
336.76
324.40
312.20
298.67
281.87
260.84
235.70
207.29
176.61
144.65
111.84
74.40
28.76
-25.29
-82.92
-136.78
-180.93
-213.50
-236.75
-255.53
-279.84
-318.12
-374.06
-445.17
-525.58
-608.92
-689.01
-759.14
-783.73
-736.91
-616.93
-451.40
-279.54
-131.11
-18.07
61.37
115.64
153.88
178.42
189.52
189.59
186.02
187.68
200.15
222.48
247.86
266.81
267.80
244.48
196.31
135.48
78.14
35.93
11.53
-0.46
-9.77
-25.97
-53.68
-90.87
-129.19
-158.55
-171.28
-164.75
-141.59
-107.67
-70.43
-35.28
-3.90
24.80
52.79
82.10
114.54
151.63
194.97
245.00
299.43
351.96
393.39
414.01
406.87
370.04
306.31
222.27
126.61
28.49
-63.32
-140.76
-197.55
-231.34
-241.90
-235.43
-223.04
-214.71
-214.43
-219.92
-225.98
-228.23
-224.48
-215.74
-204.63
-193.18
-181.83
-169.67
-155.31
-137.31
-114.17
-87.83
-59.50
-30.60
-2.04
25.90
53.68
82.01
111.58
143.17
177.62
216.17
259.11
305.10
350.51
389.61
415.84
424.27
413.83
388.13
354.56
321.03
293.13
272.36
256.43
241.15
222.94
200.63
175.59
150.90
129.57
113.58
103.90
100.92
104.78
115.05
130.17
146.69
159.64
163.53
153.97
128.85
88.40
34.61
-29.20
-98.14
-165.00
-219.96
-252.19
-253.25
-220.74
-160.50
-85.44
-11.56
47.24
82.97
94.47
85.66
62.49
30.31
-7.47
-49.32
-94.55
-142.02
-188.97
-230.52
-260.21
-271.94
-262.32
-232.57
-189.14
-142.16
-102.41
-77.89
-71.42
-80.31
-97.96
-116.80
-131.17
-139.16
-143.02
-147.53
-157.63
-176.31
-203.49
-236.03
-268.99
-296.66
-313.57
-315.41
-299.32
-264.37
-211.98
-145.85
-71.20
6.43
83.10
157.55
230.48
303.55
377.08
448.28
510.77
556.45
578.21
573.11
543.71
495.45
435.82
372.37
311.27
256.61
211.02
174.32
144.81
119.69
92.62
58.53
16.09
-32.07
-81.30
-126.43
-166.26
-201.66
-233.95
-268.77
-309.77
-356.57
-405.54
-452.51
-493.08
-528.43
-561.67
-596.18
-641.20
-703.07
-781.07
-866.68
-946.95
-1006.85
-1039.96
-1045.94
-990.99
-863.48
-677.47
-467.16
-267.65
-116.61
-6.99
72.34
129.99
172.87
203.21
222.32
234.25
244.78
258.09
277.52
299.46
320.31
339.47
354.47
365.39
375.44
389.26
410.09
439.62
472.79
502.96
525.14
534.98
533.02
524.84
517.82
516.29
519.36
518.44
503.40
467.78
409.96
334.86
252.29
173.57
107.98
60.82
30.63
10.61
-9.15
-38.56
-82.65
-138.45
-195.79
-241.76
-266.49
-267.75
-250.49
-222.85
-191.39
-158.48
-123.04
-83.45
-40.50
1.76
37.41
60.74
68.33
59.93
38.14
7.31
-27.45
-61.31
-90.43
-112.12
-124.92
-128.44
-123.03
-109.53
-89.09
-63.22
-33.84
-3.40
25.68
51.61
73.75
92.40
108.03
120.41
128.19
129.56
123.41
110.55
93.78
77.05
63.93
56.23
54.05
56.40
62.27
70.82
81.19
91.88
100.86
106.22
107.03
103.88
98.44
92.61
87.60
83.34
78.10
68.73
51.75
24.98
-10.82
-51.59
-91.20
-123.94
-146.65
-159.45
-164.59
-164.50
-160.35
-151.92
-138.96
-122.31
-104.26
-87.91
-75.72
-68.44
-65.04
-63.48
-61.64
-58.10
-52.30
-44.33
-34.65
-23.92
-12.71
-1.51
9.37
19.77
29.77
39.69
50.11
61.44
73.64
85.83
96.24
102.82
104.09
99.72
90.74
78.95
66.23
54.05
43.29
34.27
27.04
21.42
17.07
13.62
10.61
7.58
4.14
0.15
-4.12
-7.94
-10.19
-9.95
-6.92
-1.72
4.37
10.10
14.90
19.02
23.22
27.88
32.60
36.40
38.44
38.71
38.00
37.07
35.87
33.39
28.40
20.65
11.52
3.54
-1.09
-1.95
-0.92
-1.26
-6.03
-16.46
-31.49
-48.50
-64.52
-77.61
-87.02
-92.82
-95.02
-92.95
-85.41
-71.40
-50.94
-25.56
1.91
28.16
50.44
67.20
78.28
84.57
87.26
87.17
84.46
78.73
69.50
56.65
40.64
22.62
4.18
-12.96
-27.30
-37.68
-43.33
-43.90
-39.57
-31.27
-21.02
-11.77
-6.69
-8.04
-16.08
-28.38
-40.44
-47.31
-45.80
-36.24
-23.13
-13.79
-15.23
-31.13
-59.77
-94.19
-125.00
-143.84
-146.36
-132.98
-107.60
-75.31
-40.28
-4.67
31.11
67.34
104.06
140.75
176.58
210.40
240.62
264.94
280.10
282.60
269.92
241.96
201.62
154.31
106.19
61.98
23.68
-9.49
-39.59
-68.12
-94.79
-117.93
-135.87
-148.08
-155.50
-159.79
-162.29
-163.38
-162.62
-159.39
-153.69
-146.37
-138.83
-132.43
-127.94
-125.30
-123.44
-120.66
-115.25
-106.14
-93.53
-78.91
-64.48
-52.25
-43.35
-37.95
-35.66
-35.94
-38.05
-40.90
-43.02
-43.08
-40.75
-37.34
-35.52
-37.89
-45.23
-55.34
-63.45
-64.23
-54.36
-34.23
-7.75
19.48
42.83
60.20
72.14
80.34
85.95
88.78
87.77
82.26
73.09
62.50
53.02
46.14
41.66
38.17
34.12
28.92
23.27
18.64
16.50
17.76
22.66
30.91
41.79
54.20
66.56
77.14
84.40
87.38
85.96
80.74
72.94
64.13
56.07
50.29
47.54
47.42
48.30
47.89
44.23
36.62
25.87
13.79
2.16
-8.06
-17.00
-25.22
-32.89
-39.35
-43.24
-43.21
-38.72
-30.60
-20.91
-12.38
-7.54
-7.90
-13.55
-23.03
-33.71
-42.57
-46.98
-45.52
-38.50
-27.86
-16.62
-7.92
-4.28
-6.87
-15.05
-26.39
-37.21
-43.63
-43.03
-35.37
-23.35
-11.38
-3.63
-1.98
-5.28
-10.11
-12.76
-11.12
-5.49
2.12
9.48
15.43
20.25
25.17
31.41
39.56
49.57
60.83
72.57
83.97
94.10
102.08
107.32
109.74
109.83
108.37
106.15
103.54
100.36
95.83
88.79
77.97
62.53
42.62
19.61
-4.18
-26.22
-44.63
-58.60
-68.35
-74.38
-76.94
-75.97
-71.76
-65.67
-60.17
-57.98
-60.83
-68.53
-79.14
-89.98
-98.81
-104.56
-107.10
-106.74
-103.81
-98.52
-91.10
-81.94
-71.46
-60.08
-48.06
-35.60
-22.91
-9.99
3.54
18.37
34.95
52.63
69.22
81.57
86.89
84.17
74.76
61.78
48.71
37.96
30.24
24.90
20.85
17.49
14.89
13.72
14.76
18.57
25.22
34.17
44.13
53.03
58.40
58.16
51.57
39.78
25.62
12.44
2.75
-2.77
-5.32
-7.16
-10.55
-16.83
-26.30
-38.55
-52.86
-68.24
-83.31
-96.24
-105.03
-108.28
-105.91
-99.36
-90.98
-83.07
-76.90
-72.43
-68.62
-64.08
-58.02
-50.72
-43.49
-38.06
-35.76
-36.84
-40.34
-44.68
-48.34
-50.55
-51.34
-51.19
-50.37
-48.71
-45.69
-40.89
-34.26
-26.07
-16.56
-5.79
6.14
18.50
29.62
37.33
39.86
36.87
29.77
21.16
13.75
9.28
8.04
9.17
11.46
13.97
16.31
18.61
21.14
24.01
27.08
29.93
31.99
32.70
31.59
28.37
22.95
15.59
6.93
-1.90
-9.36
-13.87
-14.34
-10.77
-4.52
1.90
5.81
5.37
0.74
-5.80
-10.97
-12.08
-8.41
-1.53
5.64
10.33
11.28
9.04
5.20
1.23
-2.10
-4.76
-6.85
-8.07
-7.87
-6.07
-3.56
-2.29
-4.37
-10.82
-20.90
-32.37
-42.36
-48.64
-50.32
-47.90
-42.76
-36.54
-30.44
-25.36
-21.87
-20.20
-20.22
-21.33
-22.48
-22.50
-20.51
-16.35
-10.81
-5.27
-1.17
0.61
0.17
-1.49
-3.05
-3.64
-3.07
-1.71
0.19
2.98
7.55
14.73
24.58
36.02
47.29
56.81
64.01
69.61
75.16
82.22
91.60
102.85
114.31
123.62
128.39
127.17
120.04
108.82
96.38
85.57
78.00
73.50
70.40
66.51
60.31
51.61
41.41
31.12
21.75
13.39
5.25
-3.88
-15.02
-28.49
-43.84
-59.91
-75.13
-88.00
-97.54
-103.63
-107.17
-109.76
-112.80
-116.80
-120.96
-123.53
-122.72
-117.51
-108.10
-95.60
-81.49
-67.06
-53.14
-40.14
-28.21
-17.36
-7.42
1.96
11.21
20.53
29.72
38.23
45.57
51.60
56.61
61.05
65.00
68.02
69.29
68.20
64.79
59.91
54.91
50.95
48.41
46.71
44.84
41.98
38.14
34.18
31.24
29.99
30.20
30.83
30.57
28.56
24.66
19.45
13.76
8.36
3.72
0.00
-2.81
-4.97
-6.94
-9.44
-13.17
-18.40
-24.68
-30.78
-35.08
-36.22
-33.78
-28.58
-22.37
-17.18
-14.48
-14.64
-16.87
-19.69
-21.54
-21.41
-19.03
-14.73
-9.12
-2.91
3.21
8.60
12.75
15.57
17.59
19.87
23.56
29.20
36.41
43.99
50.49
54.90
57.05
57.49
57.15
56.83
56.93
57.35
57.67
57.39
56.21
54.21
51.96
50.25
49.76
50.72
52.79
55.22
57.24
58.29
58.23
57.11
55.06
52.19
48.73
45.38
43.15
42.87
44.50
46.71
47.21
43.79
35.66
24.04
11.81
2.14
-3.09
-4.08
-2.86
-2.05
-3.49
-7.39
-12.42
-16.48
-17.57
-14.49
-7.02
4.09
17.40
30.97
42.94
51.81
56.75
57.44
53.78
45.79
33.70
18.33
1.39
-14.76
-28.01
-37.47
-43.78
-48.92
-55.14
-64.15
-76.61
-92.16
-109.60
-127.11
-142.39
-153.09
-157.70
-156.10
-149.89
-141.58
-133.26
-125.52
-117.59
-108.46
-98.11
-87.77
-79.01
-72.29
-66.23
-58.39
-47.02
-32.75
-18.90
-10.06
-9.90
-19.34
-36.28
-56.75
-76.59
-92.56
-102.74
-106.66
-105.38
-101.55
-98.59
-99.51
-105.16
-113.42
-119.73
-118.39
-104.52
-75.40
-31.20
25.11
88.16
150.59
203.81
239.40
251.32
238.07
203.48
155.67
104.54
58.87
24.38
3.00
-6.46
-6.84
-1.09
8.36
19.43
30.39
40.12
48.29
55.25
62.23
71.14
84.30
102.46
123.38
141.54
150.36
144.46
121.28
81.75
29.85
-27.52
-82.78
-128.81
-159.18
-167.30
-147.47
-97.61
-21.74
69.74
163.29
245.08
304.57
333.95
331.13
303.41
264.81
229.60
199.90
173.18
146.65
120.29
94.91
71.61
50.27
28.62
3.04
-29.41
-67.91
-108.56
-145.56
-173.32
-188.12
-189.82
-183.04
-176.07
-177.38
-190.49
-212.08
-232.73
-240.39
-224.97
-182.24
-115.79
-35.92
43.98
112.16
161.01
188.09
195.48
187.78
170.66
149.30
127.13
105.44
84.24
62.60
39.52
14.88
-11.09
-35.62
-53.57
-59.26
-49.57
-26.37
3.52
31.30
50.09
54.50
44.38
23.77
-1.73
-27.86
-52.88
-76.11
-96.09
-110.07
-120.45
-130.89
-145.00
-164.67
-190.04
-220.05
-252.44
-283.82
-310.96
-338.61
-373.10
-419.31
-478.27
-548.02
-626.06
-710.44
-799.68
-850.47
-832.37
-737.68
-585.69
-407.12
-227.52
-63.17
76.36
186.29
266.76
316.35
337.79
337.97
326.65
313.03
302.43
297.78
300.62
311.95
326.96
340.16
347.48
348.25
344.23
337.35
329.31
321.86
316.96
313.24
309.28
300.32
280.67
249.22
207.65
160.06
111.99
68.68
32.21
2.67
-21.29
-41.02
-57.38
-71.56
-84.35
-95.50
-103.90
-108.58
-108.23
-101.75
-88.18
-67.27
-41.95
-17.89
-1.51
2.44
-5.85
-19.83
-29.37
-27.08
-8.40
25.25
65.60
103.03
129.37
140.60
137.15
121.66
97.84
70.43
44.52
26.07
18.29
22.50
37.33
60.07
87.50
117.38
149.38
178.07
197.47
210.25
213.54
198.50
162.30
108.85
47.70
-9.81
-55.62
-87.24
-107.79
-124.34
-142.24
-161.53
-179.07
-191.29
-196.43
-195.01
-186.67
-168.51
-137.09
-90.24
-29.26
39.27
105.70
160.56
196.87
210.99
202.43
172.55
126.01
71.35
18.93
-21.95
-46.32
-54.96
-52.90
-46.46
-40.48
-36.76
-34.24
-31.39
-27.50
-23.13
-19.36
-16.79
-15.12
-13.66
-11.55
-8.30
-4.29
-0.32
2.59
3.70
2.90
0.67
-2.16
-5.06
-7.49
-9.47
-11.09
-12.46
-13.43
-13.53
-12.12
-8.63
-2.97
5.13
14.49
23.98
32.49
39.22
43.73
45.91
45.85
43.38
38.77
32.05
23.47
13.28
1.98
-9.78
-21.29
-30.89
-38.69
-44.76
-49.43
-52.94
-55.64
-57.64
-58.80
-58.98
-58.07
-56.37
-54.33
-52.68
-51.86
-52.18
-53.25
-54.13
-53.77
-51.24
-46.40
-39.86
-33.65
-28.20
-24.04
-21.00
-18.34
-15.40
-12.00
-8.87
-7.51
-9.53
-15.67
-25.85
-39.29
-54.04
-69.88
-85.76
-99.42
-107.13
-104.92
-90.24
-64.08
-30.93
2.80
31.78
54.49
72.97
90.23
107.33
121.65
128.02
122.30
104.71
80.64
58.61
46.60
47.57
58.66
73.51
85.49
90.97
89.93
84.69
78.03
71.42
64.33
55.39
43.19
27.30
8.35
-12.27
-33.64
-55.51
-78.15
-100.54
-120.74
-134.64
-137.46
-126.29
-102.20
-70.54
-39.00
-14.52
-0.65
3.22
0.69
-4.19
-8.79
-12.58
-16.22
-20.23
-24.26
-27.41
-28.97
-28.97
-28.16
-27.50
-27.75
-28.75
-29.62
-29.09
-26.17
-20.65
-13.18
-5.20
1.83
6.70
8.96
8.98
7.67
5.95
4.49
3.61
3.32
3.65
4.66
6.68
10.17
15.69
23.44
33.31
44.81
57.17
69.48
80.80
90.28
97.13
100.76
100.52
95.96
87.01
73.92
57.35
38.12
17.23
-4.91
-26.81
-47.42
-65.98
-81.97
-94.98
-104.63
-110.79
-113.63
-113.52
-111.03
-106.78
-100.92
-93.19
-83.00
-69.30
-51.56
-30.03
-5.97
18.63
41.33
60.33
74.61
84.22
90.00
92.97
93.80
92.50
88.68
82.16
73.66
64.75
57.62
54.54
57.19
66.37
82.15
103.67
126.87
147.73
160.56
159.51
141.15
106.75
62.54
17.76
-19.01
-43.10
-54.50
-57.06
-55.41
-52.51
-48.99
-44.22
-37.95
-31.19
-25.84
-23.19
-23.26
-24.61
-25.10
-22.79
-17.18
-9.43
-1.67
3.96
6.45
6.34
5.37
5.67
8.86
14.98
22.38
28.40
30.50
27.54
20.24
10.67
1.38
-5.81
-10.79
-15.40
-22.47
-34.40
-51.72
-72.41
-92.17
-107.34
-115.24
-115.71
-111.23
-105.57
-102.24
-104.12
-110.58
-119.42
-126.93
-128.32
-118.54
-94.04
-54.58
-4.95
45.24
83.95
100.57
90.47
57.63
13.53
-27.26
-52.59
-56.99
-42.64
-16.94
11.30
35.42
52.40
62.08
65.13
62.16
53.37
39.97
25.35
14.80
13.76
25.33
47.64
73.09
91.08
92.40
72.90
35.97
-8.37
-46.48
-65.73
-58.59
-27.15
17.73
60.60
87.05
88.84
66.00
26.77
-18.44
-59.14
-87.68
-100.45
-97.50
-81.84
-58.02
-30.84
-6.09
12.66
25.01
33.02
39.00
44.44
49.65
54.66
59.65
65.74
74.76
88.07
105.39
125.32
146.57
168.62
191.60
214.92
235.92
249.84
251.36
236.82
206.67
165.92
122.39
83.74
54.87
36.71
26.86
22.34
19.31
14.48
5.85
-7.13
-23.65
-41.84
-59.41
-74.55
-86.96
-98.30
-111.89
-131.86
-162.02
-203.88
-255.02
-308.59
-354.48
-382.58
-386.38
-365.18
-324.27
-273.16
-221.24
-174.30
-133.37
-95.74
-58.01
-17.91
24.86
68.38
107.97
138.60
156.62
161.25
155.54
143.88
130.99
120.17
111.84
102.45
88.64
70.04
50.01
34.48
26.04
23.57
22.85
18.02
1.92
-29.44
-75.11
-129.38
-182.20
-225.50
-253.24
-262.58
-241.27
-187.73
-111.65
-28.67
40.39
98.14
150.07
197.19
236.07
258.42
255.56
225.33
173.56
111.41
51.76
1.94
-35.10
-59.36
-73.11
-81.89
-92.07
-109.63
-138.77
-180.16
-233.47
-295.95
-362.56
-426.95
-482.57
-521.74
-537.28
-524.78
-484.13
-421.77
-347.84
-272.47
-202.81
-142.32
-89.63
-41.60
4.68
51.36
99.62
151.06
207.40
268.68
330.82
387.09
427.60
443.22
430.72
395.66
351.33
313.48
293.78
296.00
318.77
355.74
398.57
439.25
470.97
488.36
487.76
468.19
417.71
337.12
239.12
142.67
63.11
5.82
-31.74
-55.31
-70.27
-80.59
-86.60
-88.52
-87.27
-83.95
-79.68
-74.94
-69.61
-64.22
-60.26
-57.92
-57.30
-59.48
-65.14
-74.82
-88.10
-103.76
-120.95
-139.72
-159.62
-180.20
-200.59
-218.72
-232.42
-239.41
-237.47
-226.53
-209.86
-193.43
-184.29
-187.90
-201.11
-217.90
-228.96
-223.29
-193.02
-136.66
-59.44
29.10
118.61
200.59
268.38
310.15
316.23
286.69
233.87
175.26
123.90
84.04
53.18
27.76
4.86
-12.80
-19.96
-12.95
7.27
35.32
62.94
80.49
81.44
65.71
40.36
14.24
-6.86
-22.28
-34.81
-47.39
-60.76
-73.12
-82.02
-85.41
-83.41
-78.34
-73.80
-72.77
-76.35
-83.49
-91.67
-98.51
-102.29
-102.86
-101.36
-99.42
-98.13
-97.51
-96.83
-94.37
-89.05
-80.44
-69.26
-56.85
-44.52
-33.09
-22.82
-13.64
-5.61
0.52
4.07
4.21
0.75
-5.51
-12.74
-18.67
-21.50
-20.51
-16.52
-10.62
-4.06
2.85
10.95
22.13
38.74
62.99
97.07
136.97
179.29
220.23
255.47
280.24
290.64
285.33
266.53
239.86
211.77
186.94
167.00
150.82
135.29
117.74
97.51
76.15
56.89
41.60
29.10
17.12
3.96
-11.17
-26.25
-36.38
-35.72
-19.39
12.23
51.65
89.02
115.79
126.27
120.47
103.64
76.03
41.59
14.46
-3.35
-18.12
-34.49
-56.89
-87.51
-125.55
-167.25
-205.69
-233.76
-247.44
-244.48
-220.46
-178.69
-129.74
-85.99
-54.64
-34.80
-22.10
-14.03
-9.54
-8.44
-11.59
-18.35
-25.97
-31.06
-30.89
-25.23
-16.56
-7.24
1.59
8.78
13.75
16.34
16.52
14.85
11.97
8.56
6.07
6.02
8.68
13.64
20.50
29.34
40.64
54.52
70.23
86.36
101.06
112.32
118.84
120.46
117.99
112.85
106.97
102.90
103.35
110.70
125.43
144.85
163.28
173.38
168.66
145.58
104.97
52.39
-3.06
-51.09
-83.33
-95.66
-88.96
-68.02
-39.11
-7.65
22.81
49.89
71.02
82.48
80.13
61.55
27.86
-16.14
-63.87
-109.44
-149.15
-181.16
-204.02
-215.61
-214.10
-199.88
-176.94
-152.50
-134.46
-128.62
-136.70
-156.62
-184.66
-218.10
-256.64
-301.65
-353.83
-410.46
-464.46
-505.74
-524.77
-516.38
-481.87
-428.64
-366.78
-305.01
-247.89
-195.44
-144.89
-93.51
-40.61
12.11
61.46
104.21
138.16
162.51
177.80
185.59
188.19
187.87
186.63
185.88
186.53
188.99
193.20
198.18
201.94
201.80
195.45
182.26
164.18
145.59
131.98
128.00
135.88
154.61
180.30
207.35
229.89
243.09
244.00
231.77
207.48
173.58
133.35
90.27
47.52
7.34
-29.25
-62.60
-93.50
-121.84
-145.42
-159.87
-160.26
-143.84
-112.32
-72.25
-32.97
-2.84
13.95
18.36
14.90
8.59
2.21
-4.24
-12.30
-22.81
-34.32
-43.25
-45.46
-38.20
-21.56
1.52
26.52
49.18
66.94
79.63
89.04
97.52
106.81
116.97
126.55
133.45
136.06
134.04
128.29
120.25
111.04
101.48
92.35
85.17
82.12
84.92
93.50
105.17
115.42
119.80
115.87
103.91
86.14
64.89
41.30
15.19
-13.61
-44.02
-73.47
-98.68
-117.99
-132.03
-143.32
-154.73
-167.78
-182.12
-196.41
-209.89
-222.73
-235.78
-248.70
-258.20
-258.04
-240.85
-201.65
-141.21
-66.90
9.77
78.03
132.49
174.81
211.09
246.68
281.99
311.55
326.87
321.45
293.96
248.36
191.11
127.31
59.94
-8.39
-71.57
-118.36
-134.75
-110.77
-46.35
46.53
146.67
231.59
285.64
305.05
297.05
274.67
248.74
224.37
200.91
174.65
142.20
102.26
55.93
5.91
-43.51
-88.77
-126.93
-156.59
-175.88
-184.45
-184.50
-178.43
-170.53
-156.13
-129.63
-89.36
-35.63
25.54
85.66
136.48
172.15
189.16
186.51
163.91
122.63
66.25
-0.30
-71.18
-140.43
-202.05
-251.07
-284.66
-304.51
-316.62
-329.40
-351.44
-388.02
-438.84
-497.44
-552.94
-593.03
-608.44
-595.45
-555.83
-496.22
-425.46
-351.89
-281.57
-217.89
-162.17
-115.29
-78.33
-50.75
-30.72
-14.89
0.52
18.11
38.26
59.28
78.36
92.92
103.84
114.31
128.57
149.70
177.85
210.15
242.32
270.30
291.80
309.35
328.02
353.70
390.89
441.47
504.89
578.72
658.66
723.29
749.93
720.51
631.60
497.94
345.58
200.27
78.83
-13.33
-79.78
-125.83
-156.00
-172.42
-176.33
-170.19
-158.47
-146.47
-138.62
-137.06
-139.67
-142.31
-140.61
-132.30
-118.24
-101.63
-86.34
-75.21
-69.32
-66.99
-65.28
-61.32
-53.55
-42.35
-29.56
-17.43
-7.71
-1.20
2.49
4.30
5.07
5.04
3.73
0.27
-6.11
-15.69
-28.07
-42.48
-57.15
-71.22
-84.02
-95.14
-104.37
-111.70
-117.18
-120.61
-122.12
-121.83
-120.08
-117.58
-115.63
-115.76
-118.45
-123.46
-125.76
-119.45
-99.47
-64.11
-15.76
39.62
94.51
141.89
176.43
194.79
195.10
177.55
145.08
103.91
62.48
28.99
8.48
0.76
1.03
1.90
-2.62
-14.18
-29.05
-39.88
-39.15
-22.73
8.36
49.14
92.55
132.25
163.99
185.79
197.53
200.59
198.03
194.92
197.19
209.34
231.76
259.63
284.34
297.07
292.43
270.82
237.48
199.67
164.96
137.48
116.98
99.71
81.07
57.57
28.36
-5.35
-41.50
-78.62
-116.42
-154.83
-193.40
-230.84
-266.48
-300.45
-334.72
-372.96
-419.89
-479.85
-554.37
-640.99
-732.96
-821.34
-895.11
-944.61
-963.95
-953.33
-918.08
-864.33
-797.12
-719.19
-634.14
-543.69
-449.79
-354.53
-261.63
-174.59
-93.22
-15.65
59.80
128.76
187.50
232.67
263.95
281.78
288.96
292.85
301.50
321.18
349.22
383.22
420.46
461.65
506.73
537.71
538.94
502.02
463.25
437.78
431.53
428.87
423.29
410.34
390.08
366.85
345.29
328.69
312.04
292.22
266.19
237.48
209.28
187.76
180.40
192.44
226.16
275.37
334.20
395.33
457.80
496.20
491.96
440.03
351.83
249.61
150.55
82.83
43.36
27.61
30.86
51.73
88.37
126.83
155.74
164.62
149.27
110.49
58.17
2.89
-45.69
-83.17
-110.70
-131.71
-151.71
-175.78
-208.58
-249.41
-295.58
-341.52
-381.29
-409.76
-422.84
-419.35
-401.76
-375.09
-343.32
-310.78
-281.24
-258.13
-243.95
-239.25
-243.40
-255.55
-272.78
-289.00
-297.14
-291.11
-268.16
-229.83
-181.37
-122.33
-59.76
-3.41
40.05
70.00
89.90
103.05
110.70
112.93
110.01
102.27
92.10
82.85
77.04
75.15
75.16
74.14
69.92
62.11
51.33
40.23
32.11
29.18
32.17
40.21
52.12
67.04
84.08
100.74
113.47
118.16
109.87
88.21
57.02
23.06
-6.57
-26.94
-36.96
-38.34
-34.77
-30.01
-27.76
-31.99
-45.81
-70.84
-106.09
-147.29
-187.26
-217.46
-230.23
-221.02
-191.02
-147.13
-100.59
-62.93
-41.39
-35.79
-38.58
-38.55
-26.35
-0.55
31.94
58.02
65.37
50.20
20.49
-7.17
-15.47
5.63
54.18
118.55
183.48
237.09
274.47
296.27
305.13
303.17
292.02
274.24
254.39
237.32
226.08
220.63
216.98
208.52
188.38
153.07
103.72
46.47
-10.04
-56.67
-85.44
-91.63
-75.02
-42.33
-4.98
24.97
38.67
32.38
4.00
-45.29
-110.28
-182.73
-253.97
-313.77
-355.49
-371.01
-358.73
-323.29
-272.89
-216.17
-159.89
-108.29
-63.05
-24.88
6.94
32.58
52.02
65.73
74.00
77.07
75.81
73.06
72.96
81.09
100.66
131.59
170.89
213.39
252.73
282.77
298.56
296.23
275.35
238.16
190.15
139.74
96.17
66.37
53.20
58.80
74.90
94.80
113.34
127.34
134.96
136.73
132.01
120.17
100.93
74.12
41.39
4.92
-33.06
-70.49
-105.68
-137.83
-166.57
-191.88
-214.60
-235.09
-254.20
-272.85
-291.29
-308.48
-321.85
-327.28
-320.30
-298.06
-260.10
-209.62
-152.82
-97.11
-48.78
-11.55
14.12
30.03
38.68
42.54
43.45
43.10
43.51
46.96
55.21
68.65
85.80
103.67
119.42
131.47
140.02
146.31
151.24
153.94
151.80
141.60
121.23
91.21
54.82
17.05
-17.22
-44.88
-65.38
-80.46
-93.23
-107.04
-124.36
-146.16
-171.38
-197.11
-219.34
-234.24
-239.30
-234.36
-221.64
-204.89
-188.28
-175.08
-167.10
-164.45
-165.95
-169.75
-174.38
-179.61
-186.74
-198.07
-215.51
-238.95
-265.58
-290.40
-307.44
-312.32
-303.60
-282.70
-252.57
-216.08
-175.19
-131.18
-85.23
-37.92
9.48
55.23
97.52
134.79
165.48
187.00
195.46
186.62
160.16
118.88
68.58
17.01
-27.70
-58.77
-72.68
-69.60
-52.03
-19.49
28.15
88.19
153.90
215.78
264.93
296.56
312.57
321.34
338.77
376.96
437.63
511.28
583.03
640.51
678.51
699.31
680.30
611.33
498.98
364.41
229.90
109.38
8.71
-70.70
-129.76
-171.28
-195.25
-203.41
-200.24
-191.96
-183.88
-178.47
-175.57
-174.09
-173.06
-168.76
-159.09
-144.73
-128.63
-113.99
-102.30
-93.47
-86.49
-80.28
-71.95
-59.81
-44.23
-27.22
-11.48
1.28
10.64
17.38
23.07
30.66
42.35
58.32
76.51
93.25
104.76
108.39
103.20
89.69
69.25
42.73
8.80
-32.41
-79.35
-129.01
-177.74
-222.40
-260.73
-290.91
-310.57
-316.40
-304.72
-273.83
-225.60
-165.84
-102.55
-42.85
9.33
54.11
94.14
132.07
168.09
199.43
221.39
229.46
221.06
196.11
156.71
105.81
45.80
-22.35
-98.55
-181.95
-269.03
-352.68
-423.20
-471.08
-490.47
-481.70
-451.30
-409.46
-366.06
-327.25
-294.39
-265.25
-236.42
-205.55
-172.18
-137.12
-101.31
-65.00
-27.79
10.80
50.65
91.05
130.73
168.67
204.69
239.53
274.10
308.24
339.68
364.19
377.19
376.16
362.55
342.25
324.09
317.01
326.72
353.56
392.42
434.71
471.40
495.96
505.96
503.24
492.19
476.88
458.63
435.29
402.93
358.60
302.58
238.89
173.69
112.58
58.15
9.46
-36.05
-79.84
-120.96
-157.46
-188.43
-214.52
-236.55
-253.18
-260.18
-251.97
-225.12
-181.73
-130.56
-87.21
-66.84
-76.05
-107.75
-145.53
-174.34
-188.57
-191.85
-191.22
-191.05
-190.39
-184.80
-170.53
-147.88
-121.36
-97.40
-81.26
-75.65
-80.07
-91.28
-104.33
-113.59
-114.26
-103.59
-81.79
-51.29
-18.60
8.48
24.57
28.95
25.30
19.28
15.51
15.60
18.37
21.37
22.79
22.78
23.46
26.98
34.27
44.69
56.62
68.48
79.47
88.98
96.23
99.51
96.12
83.22
59.48
26.25
-12.36
-50.62
-83.75
-109.29
-128.11
-143.73
-160.14
-179.37
-200.28
-218.81
-226.18
-216.33
-187.36
-142.21
-87.15
-28.94
27.96
81.77
131.99
177.37
214.41
239.03
249.12
246.69
237.56
228.68
224.24
223.57
221.96
213.30
194.61
167.97
139.34
114.93
97.35
84.12
69.56
48.78
21.26
-7.68
-29.21
-35.32
-22.95
4.42
38.24
68.64
88.25
94.03
87.27
71.55
50.46
25.95
-1.85
-33.76
-70.37
-110.81
-152.62
-192.40
-227.10
-254.67
-274.31
-286.05
-290.42
-289.06
-285.19
-283.87
-291.14
-311.21
-342.91
-378.21
-404.34
-409.23
-387.42
-342.86
-287.11
-234.45
-195.76
-174.57
-166.63
-162.38
-151.25
-125.88
-84.56
-31.17
24.35
68.08
86.21
70.51
22.53
-45.69
-115.75
-169.13
-192.00
-180.25
-139.33
-80.38
-14.59
50.88
113.70
174.46
234.80
298.11
365.82
436.03
503.15
559.62
598.20
614.45
607.85
568.07
494.19
395.47
288.44
188.84
105.51
40.34
-8.21
-43.01
-66.80
-78.54
-75.71
-56.05
-20.02
27.49
76.74
117.58
140.53
139.70
117.32
81.15
40.74
3.57
-26.68
-49.50
-65.16
-74.41
-78.30
-76.94
-71.86
-66.75
-66.81
-74.46
-89.94
-109.64
-123.83
-124.34
-107.00
-74.09
-33.09
6.90
38.53
56.08
62.57
63.26
62.40
62.22
61.69
56.92
44.81
22.62
-10.51
-52.89
-101.74
-153.56
-203.44
-245.31
-272.95
-282.46
-274.99
-256.91
-236.83
-222.12
-214.90
-210.78
-201.75
-180.67
-145.62
-101.35
-56.89
-21.15
0.44
7.74
5.17
-0.78
-3.98
-0.74
9.15
23.62
40.17
57.54
76.16
97.83
121.35
142.76
156.77
159.15
149.04
129.67
106.92
86.71
72.35
63.81
58.82
54.49
48.85
41.51
33.43
26.30
21.40
19.00
18.33
18.15
17.32
15.27
12.15
8.58
5.38
3.04
1.63
0.90
0.74
1.34
3.29
7.31
13.95
23.29
34.68
47.09
59.65
72.08
84.81
98.54
113.27
127.62
138.78
143.40
138.95
124.98
103.14
76.61
49.25
24.87
7.19
-0.31
4.84
22.90
51.10
83.70
113.89
136.32
149.02
153.77
154.55
155.06
156.95
159.74
161.37
159.54
152.85
141.10
125.14
106.36
86.18
66.04
47.26
30.98
18.07
8.97
3.61
1.38
1.29
2.14
3.01
3.47
3.58
3.66
3.91
4.03
3.14
0.04
-6.20
-15.84
-28.37
-42.79
-58.16
-74.01
-90.59
-108.59
-128.62
-150.58
-173.42
-195.63
-215.76
-233.29
-248.86
-264.16
-281.38
-302.93
-331.02
-367.41
-412.80
-465.76
-521.93
-574.31
-614.99
-637.83
-640.77
-626.11
-599.44
-567.23
-534.57
-504.11
-476.07
-449.21
-421.64
-391.19
-354.85
-309.67
-253.97
-188.70
-117.80
-46.62
20.06
79.85
133.60
185.58
241.01
303.67
374.66
451.88
530.65
603.82
661.61
692.97
690.55
653.97
591.93
520.20
455.71
409.96
384.25
369.99
346.80
300.04
228.03
143.99
67.32
10.92
-24.00
-43.95
-55.58
-60.43
-55.15
-36.40
-5.25
31.76
65.34
87.86
96.92
95.75
87.40
78.37
73.75
75.29
81.13
87.14
89.04
84.17
72.23
55.19
37.86
25.94
24.62
36.75
61.69
95.41
131.70
164.47
189.65
206.91
218.46
227.28
235.64
244.52
253.80
262.49
268.73
269.52
261.15
239.62
201.89
147.31
78.64
1.79
-75.11
-143.49
-195.92
-227.21
-235.05
-220.10
-185.82
-138.03
-84.54
-34.27
4.16
24.26
23.39
3.50
-29.84
-69.82
-111.13
-151.52
-190.93
-229.15
-263.57
-289.34
-301.41
-298.16
-283.17
-264.36
-250.50
-247.26
-255.10
-270.50
-289.45
-310.85
-337.20
-372.17
-416.60
-465.84
-510.52
-540.27
-548.51
-535.19
-506.17
-469.98
-433.51
-399.05
-364.42
-325.31
-278.03
-221.66
-158.04
-90.50
-22.05
45.49
111.79
176.66
239.12
297.29
349.19
394.03
432.89
467.93
500.48
529.65
550.63
556.13
539.78
499.45
438.63
364.80
286.57
211.22
144.82
91.73
55.84
41.00
49.63
80.60
128.36
183.92
237.90
284.65
320.99
345.11
355.28
349.57
326.78
288.57
240.02
181.92
121.72
68.62
29.53
5.25
-7.28
-14.38
-20.11
-26.53
-35.72
-49.08
-68.80
-96.38
-131.04
-169.29
-206.52
-238.58
-263.17
-279.43
-285.75
-281.94
-269.14
-250.58
-231.22
-216.69
-211.26
-216.39
-230.08
-239.47
-233.19
-205.44
-159.49
-104.71
-50.74
-3.16
37.08
71.14
100.98
126.69
146.87
159.44
163.87
161.79
156.53
151.44
148.59
148.24
148.55
146.57
138.59
122.86
100.30
73.99
47.83
24.43
5.15
-10.38
-24.34
-40.79
-62.79
-91.51
-126.56
-161.12
-190.56
-211.79
-223.37
-216.69
-189.14
-144.16
-90.10
-36.01
12.52
53.00
83.28
106.20
122.17
128.30
121.68
100.80
65.55
17.67
-38.71
-97.16
-148.83
-184.76
-198.81
-188.40
-155.85
-108.30
-55.79
-8.44
27.01
49.21
60.47
64.08
62.87
58.36
51.28
42.76
34.62
28.86
26.88
28.18
30.54
31.46
29.16
23.41
15.54
7.68
1.60
-1.79
-2.96
-3.43
-4.81
-7.92
-12.72
-18.22
-22.85
-25.51
-25.68
-23.70
-20.45
-16.94
-13.40
-9.64
-5.17
0.71
8.39
17.72
28.20
39.07
49.36
58.40
65.46
70.32
73.58
76.55
80.57
85.87
90.54
90.92
83.71
67.40
44.77
22.55
8.76
9.31
25.97
55.68
92.85
131.29
164.50
186.86
193.79
182.45
152.62
107.97
54.56
-0.43
-51.39
-97.19
-139.81
-182.29
-224.70
-265.30
-300.76
-329.03
-349.08
-355.53
-345.76
-320.15
-282.73
-239.88
-197.14
-155.83
-114.46
-68.56
-14.29
47.46
110.92
167.56
209.63
233.50
245.72
250.18
249.98
246.53
238.59
224.44
203.60
177.75
144.84
109.57
75.25
43.69
14.94
-12.34
-38.92
-64.40
-87.31
-105.85
-118.02
-124.64
-127.41
-128.51
-130.00
-132.76
-136.46
-140.02
-141.87
-140.27
-135.48
-128.53
-120.88
-114.09
-108.92
-105.59
-103.89
-103.37
-103.31
-103.86
-105.29
-107.91
-111.89
-116.82
-122.14
-127.30
-131.69
-134.62
-135.65
-134.01
-128.55
-120.73
-110.94
-99.66
-87.60
-75.64
-64.68
-55.51
-48.42
-43.21
-39.31
-35.67
-31.65
-27.28
-23.29
-20.82
-21.04
-24.21
-29.78
-36.42
-42.33
-46.25
-47.94
-48.14
-48.01
-48.30
-47.76
-43.84
-33.19
-12.83
18.21
58.20
103.06
147.77
187.87
222.61
253.63
283.79
316.25
352.91
394.18
439.33
486.62
532.44
573.51
604.64
620.48
618.49
600.40
572.39
542.55
517.27
497.61
482.15
466.27
446.10
422.61
401.67
391.61
398.78
424.49
443.33
432.99
378.37
278.41
147.63
7.47
-123.58
-236.25
-330.01
-408.83
-473.58
-520.04
-547.47
-555.18
-544.53
-519.22
-485.11
-447.08
-407.68
-366.36
-321.43
-273.51
-226.08
-185.60
-154.36
-134.98
-127.07
-126.93
-127.64
-122.81
-108.84
-84.83
-54.80
-22.88
6.70
31.23
49.25
60.66
65.73
65.11
60.18
52.61
44.61
37.98
34.41
34.91
40.11
50.27
65.50
85.02
106.00
123.57
131.17
122.87
95.52
49.91
-10.90
-78.08
-140.12
-187.18
-214.59
-223.77
-219.56
-206.91
-189.37
-169.04
-147.13
-125.50
-106.40
-91.46
-81.15
-74.47
-69.44
-64.18
-57.55
-49.17
-39.93
-31.31
-24.61
-20.35
-18.01
-16.45
-14.47
-11.36
-6.87
-1.62
3.48
7.53
10.15
11.58
12.52
13.67
15.52
18.38
22.10
26.38
30.95
35.60
40.32
45.22
50.18
54.76
58.72
61.44
62.40
61.24
57.66
51.65
43.47
33.53
22.36
11.11
0.14
-10.07
-18.99
-26.42
-32.27
-36.49
-39.16
-40.42
-40.45
-39.66
-39.18
-38.50
-37.57
-36.34
-34.70
-32.42
-29.25
-24.89
-19.28
-12.24
-3.59
6.30
17.04
28.10
38.94
49.02
57.86
65.04
70.39
74.01
75.73
75.68
74.14
71.65
68.84
66.42
65.05
65.36
67.89
72.37
78.53
86.07
94.65
103.95
113.71
123.64
133.55
143.31
152.19
159.68
165.53
169.62
171.88
172.16
169.84
163.65
155.81
146.53
135.79
123.62
110.35
96.65
83.33
71.04
59.98
49.77
38.98
26.35
11.22
-6.21
-24.86
-43.30
-60.38
-75.86
-90.54
-106.38
-125.02
-147.04
-171.46
-196.17
-218.94
-238.61
-255.73
-272.36
-291.30
-314.33
-341.56
-371.78
-403.51
-435.92
-468.50
-499.99
-527.03
-544.50
-546.90
-530.75
-496.29
-447.46
-389.95
-328.67
-266.39
-204.52
-145.58
-94.88
-59.27
-43.79
-47.97
-64.15
-79.69
-82.46
-66.96
-37.54
-6.67
11.61
9.59
-10.22
-36.57
-55.30
-56.14
-36.82
-3.04
34.70
66.51
87.07
96.08
96.91
94.41
93.19
96.83
107.38
124.73
148.23
177.79
213.62
255.88
303.57
354.07
403.56
447.49
481.52
496.04
484.68
446.94
389.69
323.68
258.08
198.22
149.37
109.49
78.20
57.30
47.53
46.36
47.56
41.91
22.33
-13.76
-63.50
-115.72
-156.09
-174.70
-170.17
-148.96
-123.11
-99.59
-82.75
-75.97
-81.43
-100.35
-131.74
-171.05
-209.93
-238.09
-246.06
-229.87
-192.19
-140.50
-84.52
-32.55
11.12
46.57
76.76
105.76
136.08
167.91
200.00
229.91
254.86
273.09
283.97
287.91
285.74
277.25
261.39
237.39
205.72
168.66
130.31
94.80
64.44
39.05
15.94
-8.68
-38.40
-75.99
-123.11
-178.77
-238.83
-296.11
-341.01
-364.47
-360.80
-329.84
-276.79
-209.89
-136.21
-61.00
12.19
80.90
142.67
195.80
240.74
280.83
314.08
339.55
355.88
360.80
351.67
326.09
284.33
231.11
174.30
122.45
82.89
59.44
49.24
48.38
52.76
59.39
66.77
72.70
74.84
72.15
64.74
53.24
40.95
30.24
22.47
17.69
12.38
2.50
-13.88
-35.89
-60.63
-84.36
-104.45
-119.73
-130.79
-143.04
-161.84
-189.44
-223.84
-260.24
-293.45
-319.97
-338.41
-349.52
-359.95
-376.14
-401.55
-435.72
-476.25
-520.44
-565.55
-607.42
-612.88
-560.05
-448.25
-301.08
-151.70
-25.88
65.11
122.38
154.52
171.73
177.54
172.40
156.71
133.84
109.67
90.33
79.34
78.61
87.04
98.09
104.89
103.39
94.68
83.08
73.62
69.61
72.82
82.52
94.04
102.30
104.00
100.93
95.60
92.20
93.93
102.95
118.66
137.06
152.78
160.58
159.76
152.68
143.14
134.61
131.07
135.30
148.79
170.94
197.97
226.19
250.56
265.47
256.42
216.17
148.85
69.71
3.46
-46.30
-83.91
-114.32
-140.31
-158.32
-160.27
-139.57
-94.55
-31.93
34.58
92.64
134.65
159.62
172.73
182.64
188.51
188.47
178.81
155.88
120.40
76.18
28.65
-16.70
-55.41
-85.38
-104.47
-113.78
-114.63
-107.25
-92.81
-74.87
-58.96
-51.06
-56.08
-73.27
-96.38
-116.18
-124.66
-119.00
-101.94
-79.28
-56.57
-36.95
-20.32
-5.79
6.87
16.71
22.29
23.43
20.75
15.52
8.94
1.34
-8.52
-22.25
-40.18
-59.78
-75.24
-79.52
-67.31
-37.32
7.27
60.04
113.63
161.61
197.38
215.27
211.06
182.62
130.98
61.42
-16.65
-91.43
-151.80
-190.14
-203.68
-194.10
-166.53
-127.87
-85.53
-46.53
-16.33
2.43
11.03
14.60
20.42
34.76
60.07
93.55
127.94
154.10
164.02
153.26
122.49
77.73
29.38
-10.55
-32.15
-31.62
-13.24
11.72
29.42
28.92
5.76
-37.51
-94.01
-155.80
-216.50
-271.54
-317.52
-351.22
-369.95
-372.73
-361.38
-340.43
-315.62
-292.11
-272.81
-257.93
-245.48
-232.51
-216.64
-197.14
-175.31
-153.99
-136.35
-124.51
-118.62
-117.01
-116.87
-115.27
-110.04
-100.12
-85.31
-65.79
-41.74
-12.98
20.64
59.00
101.42
146.54
192.59
238.01
281.74
323.28
363.07
401.84
440.71
481.32
525.61
575.09
629.56
686.12
739.08
781.37
806.48
810.43
792.40
754.27
699.55
632.16
555.81
473.91
389.82
306.72
227.10
152.66
84.32
22.94
-30.60
-75.59
-112.10
-141.45
-166.03
-188.87
-211.94
-235.39
-257.35
-275.36
-288.02
-296.00
-302.13
-310.50
-326.74
-355.12
-397.18
-450.62
-509.57
-565.51
-608.68
-629.90
-622.68
-587.41
-530.16
-461.03
-390.89
-328.29
-277.28
-236.89
-203.05
-172.41
-148.37
-138.61
-150.44
-185.38
-237.02
-293.09
-340.87
-372.85
-371.90
-332.49
-261.16
-173.39
-84.04
-0.10
78.15
151.17
216.00
267.18
297.68
304.91
292.96
271.43
250.87
238.93
237.91
244.92
254.39
259.29
253.47
234.13
202.43
162.26
119.94
83.14
59.46
54.68
68.55
93.80
117.77
126.81
111.62
72.76
20.85
-27.84
-57.85
-61.18
-36.85
7.63
62.04
112.69
148.38
163.01
154.02
121.23
69.63
4.54
-63.11
-117.45
-144.80
-140.49
-109.89
-71.76
-49.09
-57.28
-97.38
-155.97
-212.54
-249.93
-260.63
-247.50
-218.76
-181.24
-137.11
-86.25
-30.41
24.74
70.71
101.62
118.31
129.02
145.58
177.63
226.70
280.04
318.52
326.51
301.37
252.40
191.64
124.73
50.28
-34.79
-128.17
-218.44
-288.61
-323.29
-320.70
-286.94
-235.28
-180.63
-134.04
-99.59
-74.77
-54.19
-33.35
-10.83
12.99
37.33
63.09
90.90
121.85
155.51
188.92
217.29
235.44
240.66
233.16
216.09
194.02
171.31
150.70
133.10
118.34
105.87
95.68
87.59
80.93
74.36
66.41
55.84
42.26
26.14
8.51
-9.37
-26.55
-42.32
-56.14
-67.63
-77.27
-86.94
-99.74
-118.69
-144.57
-174.55
-202.36
-220.50
-223.24
-209.13
-181.17
-144.77
-105.04
-64.98
-25.72
11.69
44.67
69.20
81.71
81.64
72.75
61.99
56.52
60.48
73.31
90.56
106.42
116.43
119.11
116.00
110.24
104.89
101.97
101.99
104.32
107.67
110.76
112.70
113.23
112.38
109.75
104.23
93.83
76.30
50.22
15.66
-25.83
-72.24
-122.05
-174.30
-227.31
-277.16
-317.08
-338.81
-335.66
-305.46
-251.80
-182.43
-106.12
-29.63
43.22
110.49
169.87
217.61
249.23
261.72
255.94
236.98
212.75
191.25
178.19
175.98
184.23
201.27
225.30
254.46
286.24
316.78
340.90
353.22
349.88
329.95
295.86
252.60
206.06
161.24
121.37
87.96
61.40
41.70
28.98
23.26
24.19
30.89
41.82
55.24
69.38
82.72
94.13
102.88
108.50
110.75
109.60
105.15
97.52
86.90
73.54
57.71
39.82
20.40
0.20
-19.91
-39.10
-56.77
-72.72
-87.14
-100.48
-113.13
-125.17
-136.23
-145.54
-152.41
-156.64
-158.85
-160.47
-163.36
-169.09
-178.53
-191.48
-207.20
-224.79
-243.94
-265.18
-289.70
-318.99
-354.64
-398.27
-451.21
-513.63
-583.26
-654.54
-718.89
-766.82
-790.96
-788.71
-762.99
-721.00
-671.34
-621.19
-574.77
-533.43
-496.85
-464.36
-435.37
-409.09
-384.46
-360.32
-336.02
-311.78
-288.59
-267.51
-249.24
-233.27
-217.60
-199.21
-174.77
-141.92
-100.48
-53.57
-7.73
28.49
47.40
46.30
28.34
1.59
-24.21
-40.96
-44.52
-34.78
-14.23
14.38
52.06
101.16
162.86
234.51
309.71
380.94
442.53
492.38
531.64
566.47
601.86
638.22
670.41
691.06
695.14
682.94
659.74
632.71
612.73
607.73
620.71
649.43
688.79
733.31
777.78
816.60
818.69
761.73
642.16
482.20
317.58
177.70
75.45
8.98
-28.43
-50.34
-62.00
-65.37
-63.17
-61.73
-68.98
-90.33
-125.06
-165.39
-200.19
-214.97
-200.66
-157.47
-95.09
-28.15
30.01
71.36
93.59
97.61
88.00
68.87
42.99
12.09
-21.87
-55.75
-85.76
-108.78
-123.63
-129.85
-128.57
-122.26
-114.47
-108.98
-108.74
-115.09
-127.24
-143.49
-161.16
-178.21
-193.88
-208.73
-224.18
-241.96
-263.67
-290.53
-322.73
-358.43
-393.48
-421.72
-436.79
-434.58
-414.95
-381.81
-341.26
-299.06
-258.46
-220.57
-184.98
-151.27
-120.15
-92.92
-70.57
-52.80
-38.10
-23.96
-8.41
10.36
33.43
60.33
88.27
112.12
125.65
123.62
105.06
73.48
37.07
5.34
-15.11
-23.19
-23.09
-20.78
-20.99
-17.21
-3.99
20.14
50.15
77.10
93.98
97.72
93.84
88.22
83.15
74.76
55.99
20.88
-32.33
-98.98
-168.84
-228.89
-268.15
-280.39
-267.26
-236.46
-197.88
-161.34
-133.84
-118.36
-113.60
-115.64
-119.35
-120.72
-116.99
-103.57
-76.75
-34.63
21.72
88.27
158.67
225.95
283.32
325.71
355.09
375.61
391.65
406.14
420.48
435.29
451.21
468.62
487.70
514.84
555.43
611.62
681.02
757.66
834.20
904.15
962.61
978.28
933.81
827.26
673.28
494.53
311.21
136.80
-20.18
-150.63
-258.70
-343.45
-404.35
-443.28
-464.63
-473.75
-475.44
-468.38
-453.80
-435.40
-412.87
-386.39
-356.53
-324.30
-291.01
-258.24
-228.09
-204.13
-190.32
-185.66
-187.15
-190.62
-191.85
-187.43
-175.31
-155.03
-128.30
-98.66
-68.70
-41.71
-21.41
-10.78
-10.61
-18.73
-30.48
-40.84
-46.40
-45.75
-40.15
-32.43
-25.18
-19.48
-14.84
-10.10
-4.85
0.31
4.26
6.08
5.64
3.48
0.07
-5.07
-13.59
-27.68
-48.73
-76.94
-111.16
-149.55
-189.95
-230.25
-268.17
-301.05
-325.73
-339.12
-339.80
-328.46
-307.49
-279.34
-245.24
-204.98
-157.65
-102.56
-40.30
25.59
88.69
140.57
173.28
181.66
164.70
125.85
72.36
18.71
-19.45
-30.28
-11.70
28.87
80.14
132.47
179.65
218.20
245.97
261.05
263.16
252.60
231.60
204.25
174.82
145.71
116.21
82.90
40.79
-11.99
-73.23
-135.44
-187.89
-221.61
-234.01
-230.78
-224.05
-228.13
-254.33
-307.51
-384.33
-474.29
-562.97
-635.58
-680.19
-690.19
-665.58
-612.21
-539.80
-458.53
-376.12
-297.03
-222.91
-154.09
-90.57
-32.19
21.42
71.11
118.17
163.84
208.55
251.76
292.20
328.36
359.87
386.84
409.80
429.50
446.81
462.29
476.16
488.01
496.95
502.99
505.89
505.46
502.04
496.90
492.22
490.80
495.40
508.13
531.73
566.06
607.24
647.66
677.35
686.74
669.32
623.70
554.24
471.83
387.47
308.73
238.01
173.66
112.91
54.31
-1.16
-64.79
-137.71
-213.93
-283.37
-337.81
-374.47
-394.90
-402.38
-400.13
-391.16
-376.14
-356.86
-335.86
-315.84
-298.44
-283.52
-269.83
-256.00
-241.25
-223.87
-203.56
-180.98
-157.57
-134.84
-113.74
-94.86
-78.85
-66.43
-56.75
-49.66
-45.00
-43.17
-44.85
-50.58
-60.63
-74.71
-91.77
-109.81
-127.21
-142.80
-156.23
-166.88
-172.60
-170.13
-156.62
-131.53
-97.74
-60.99
-26.89
0.92
22.40
40.44
58.29
77.23
96.30
113.61
127.04
137.07
145.43
154.64
166.10
178.42
187.23
186.69
172.07
141.97
99.30
48.88
-3.51
-52.72
-95.52
-131.34
-161.24
-186.49
-207.22
-214.28
-201.23
-167.80
-120.56
-68.97
-21.21
18.77
50.83
77.08
100.10
120.43
137.37
150.35
159.53
164.62
165.52
162.81
157.92
152.53
147.15
141.55
135.87
130.72
124.05
113.67
97.83
75.52
45.66
9.80
-30.84
-74.11
-117.16
-160.68
-205.60
-252.23
-299.70
-346.74
-393.06
-440.00
-489.57
-520.79
-519.68
-481.82
-413.25
-324.54
-226.03
-127.30
-37.86
34.77
87.31
118.06
129.95
128.88
121.15
111.24
101.18
91.65
83.67
78.89
75.95
72.99
68.34
61.24
51.68
40.48
28.99
19.04
12.26
7.90
4.42
0.41
-4.98
-11.89
-19.73
-27.78
-34.47
-38.40
-39.58
-38.64
-36.35
-33.39
-30.29
-26.96
-23.28
-19.26
-15.25
-12.13
-11.17
-13.18
-18.49
-26.86
-36.47
-45.33
-51.71
-54.69
-54.03
-50.84
-45.98
-40.53
-35.77
-31.07
-25.70
-19.46
-12.93
-6.99
-3.76
-3.20
-3.93
-8.62
-15.25
-20.46
-21.57
-17.49
-8.54
1.89
12.53
22.78
32.29
44.19
62.44
89.45
125.50
169.01
214.67
260.25
305.07
333.65
336.07
310.33
262.95
205.86
168.12
152.20
153.87
168.15
192.16
218.10
244.05
268.95
291.81
311.97
326.78
336.74
341.95
339.82
327.81
303.11
263.05
207.70
140.95
67.46
-5.47
-72.17
-135.94
-194.76
-243.63
-277.55
-293.69
-292.60
-279.29
-259.48
-238.63
-220.85
-206.49
-193.88
-180.80
-165.77
-148.58
-130.90
-114.79
-102.00
-93.47
-87.71
-82.26
-74.59
-63.10
-47.97
-31.37
-16.81
-7.46
-5.43
-9.86
-17.98
-26.33
-32.07
-33.93
-32.30
-28.71
-24.63
-21.09
-18.69
-18.79
-22.96
-31.83
-43.95
-53.68
-55.00
-43.91
-20.82
9.15
37.69
57.75
66.74
66.98
63.64
60.76
58.76
54.22
42.70
21.02
-9.51
-43.33
-72.98
-92.17
-98.49
-93.97
-83.45
-71.83
-63.46
-60.02
-61.58
-68.15
-80.71
-101.37
-131.92
-171.83
-210.44
-237.77
-244.74
-227.13
-187.92
-136.75
-86.67
-49.21
-30.07
-27.87
-37.62
-52.70
-68.39
-82.86
-96.27
-109.08
-121.50
-131.81
-137.68
-138.82
-135.87
-130.27
-123.53
-116.39
-108.81
-100.33
-90.66
-79.52
-68.00
-57.26
-47.98
-39.91
-31.65
-21.14
-6.12
10.40
26.41
39.84
49.64
56.28
61.49
67.62
76.34
87.69
99.89
110.87
118.60
122.57
124.30
126.70
132.95
145.30
164.70
190.78
222.22
255.67
285.82
306.26
311.57
299.78
273.78
240.58
208.32
182.63
163.78
147.24
127.15
100.52
69.66
41.61
24.90
25.67
45.25
79.71
121.89
163.99
199.98
226.53
243.00
250.54
250.69
244.33
231.27
211.12
184.82
155.91
129.80
111.89
105.12
108.35
116.58
123.35
124.02
118.19
109.44
102.16
98.61
97.60
95.32
87.42
70.91
45.38
12.82
-23.93
-63.53
-106.63
-154.74
-208.31
-265.93
-324.52
-380.07
-428.80
-461.50
-469.33
-448.67
-404.29
-346.48
-285.75
-228.72
-177.78
-132.93
-93.43
-59.96
-34.58
-19.20
-13.50
-15.10
-20.57
-26.18
-28.82
-26.71
-20.44
-13.15
-9.31
-12.73
-26.35
-50.95
-84.00
-119.78
-151.10
-169.48
-170.85
-156.74
-132.33
-105.33
-82.01
-64.14
-48.81
-30.28
-3.49
33.56
79.76
132.67
187.50
237.45
275.03
293.51
288.90
261.24
214.33
148.90
75.46
9.27
-37.61
-61.24
-63.93
-50.13
-24.68
6.48
36.91
59.85
68.69
59.33
32.41
-6.64
-49.20
-85.80
-105.90
-102.86
-77.54
-39.93
-5.46
11.58
3.80
-26.72
-68.93
-107.44
-128.38
-124.42
-97.56
-57.72
-17.64
13.12
31.39
40.31
44.96
47.32
45.28
34.69
13.87
-13.75
-40.85
-60.81
-71.09
-75.29
-80.87
-94.40
-117.06
-143.18
-163.77
-171.53
-165.45
-150.41
-134.24
-122.95
-117.55
-114.65
-109.11
-98.34
-83.88
-72.74
-72.17
-85.66
-111.26
-141.57
-170.25
-193.26
-209.78
-221.04
-229.19
-235.15
-238.39
-237.77
-232.37
-222.05
-206.74
-188.58
-168.63
-147.34
-124.17
-98.29
-69.23
-37.22
-3.23
31.60
66.09
99.66
131.94
163.14
193.49
223.13
252.09
280.78
309.56
338.70
368.41
398.61
429.17
459.51
487.95
511.37
526.78
530.79
521.05
497.76
464.18
426.20
390.18
360.30
337.13
320.27
307.60
296.74
285.94
274.32
261.60
247.48
231.26
211.74
191.01
171.48
154.90
141.83
131.92
124.77
120.38
119.54
109.51
85.00
47.06
2.30
-41.72
-81.15
-116.35
-149.08
-176.41
-199.17
-214.03
-218.08
-211.13
-197.13
-182.30
-172.75
-171.56
-179.43
-195.40
-214.38
-230.46
-238.22
-235.26
-221.79
-200.44
-175.44
-152.19
-135.84
-127.28
-124.00
-120.97
-115.05
-104.85
-91.11
-76.00
-62.80
-54.90
-53.59
-58.64
-68.36
-83.83
-106.34
-136.27
-172.34
-212.23
-253.92
-296.18
-339.46
-369.10
-376.15
-359.17
-325.22
-284.75
-245.36
-209.87
-178.05
-149.01
-122.16
-101.67
-92.37
-96.71
-112.65
-133.26
-148.50
-148.45
-131.15
-94.54
-45.20
6.04
49.62
80.81
100.91
114.98
128.25
143.64
161.06
175.89
183.60
183.12
177.33
171.84
172.64
181.55
199.56
227.17
263.57
302.79
338.06
360.84
362.63
338.19
288.20
220.26
146.51
78.78
25.12
-11.42
-32.61
-42.49
-44.86
-42.32
-36.24
-28.18
-20.64
-16.50
-17.32
-22.78
-30.80
-38.67
-44.39
-47.38
-48.77
-50.56
-54.33
-60.02
-66.02
-69.74
-68.79
-62.11
-50.29
-35.50
-20.51
-7.42
2.98
11.23
18.29
25.16
31.44
35.71
35.97
30.32
17.50
-2.84
-29.86
-60.79
-90.66
-113.35
-123.20
-117.36
-97.45
-69.32
-41.01
-19.41
-7.77
-5.24
-8.32
-13.21
-17.73
-21.79
-26.30
-32.00
-38.60
-45.08
-50.64
-55.07
-58.70
-61.76
-64.32
-65.12
-62.59
-55.33
-42.74
-25.36
-4.52
18.05
40.74
62.43
82.53
100.54
115.73
127.18
133.83
134.97
130.66
122.10
111.61
102.18
96.70
96.75
101.54
107.25
108.20
99.14
78.07
47.44
13.80
-15.06
-33.13
-38.06
-31.83
-19.04
-4.89
6.24
11.31
8.78
-1.30
-16.84
-33.88
-48.00
-56.22
-58.64
-58.44
-59.72
-65.09
-73.17
-80.39
-82.30
-76.60
-64.57
-50.01
-36.45
-24.60
-12.48
2.47
21.24
42.06
60.82
73.70
79.11
77.09
69.34
57.68
43.61
28.65
15.17
6.26
5.11
12.15
24.67
38.32
49.35
56.71
62.03
67.45
72.58
74.12
67.23
48.95
21.02
-10.17
-35.99
-49.72
-49.71
-39.70
-26.02
-14.54
-7.58
-3.56
0.77
8.11
18.83
30.84
40.77
45.98
45.28
39.19
31.31
23.53
15.87
6.64
-6.85
-27.23
-56.27
-95.06
-143.47
-199.57
-259.15
-315.54
-360.48
-386.26
-388.66
-368.58
-332.04
-287.40
-241.88
-199.69
-161.91
-127.85
-96.17
-66.83
-40.89
-20.04
-4.91
5.75
14.24
22.58
31.99
42.21
50.80
56.41
57.25
51.87
39.53
22.24
3.75
-11.37
-16.88
-9.05
12.17
42.74
77.47
112.89
148.48
185.61
226.85
277.23
339.11
410.45
484.06
549.82
597.43
618.14
605.10
537.62
412.70
249.72
84.88
-47.65
-130.96
-167.76
-173.76
-170.56
-173.97
-189.78
-219.16
-261.31
-315.36
-379.94
-452.73
-525.98
-592.25
-645.15
-677.58
-684.67
-664.57
-619.60
-556.01
-482.34
-407.44
-338.68
-279.27
-226.89
-177.20
-126.73
-75.00
-24.13
23.41
66.61
106.19
144.55
184.77
228.30
274.09
318.88
358.73
391.09
415.73
434.81
452.41
473.07
499.43
530.73
562.75
589.36
605.09
606.67
594.18
570.17
538.08
500.23
457.24
408.46
353.40
293.28
230.31
168.12
110.08
58.63
14.42
-23.46
-56.92
-88.31
-119.59
-153.97
-193.88
-240.45
-292.29
-344.83
-390.95
-422.86
-435.16
-426.21
-400.76
-365.85
-328.49
-292.49
-257.28
-219.00
-173.19
-123.01
-66.12
-10.13
36.78
67.92
80.25
74.64
54.45
23.91
-13.16
-51.96
-88.31
-116.12
-129.33
-123.92
-99.77
-61.35
-16.39
26.63
61.78
85.28
96.94
98.70
93.64
84.98
75.40
66.64
59.33
53.77
49.28
45.68
43.06
41.48
40.54
39.30
36.53
31.58
25.03
18.04
12.25
8.73
7.64
8.39
10.37
13.26
17.21
22.75
30.20
39.98
52.39
67.32
83.93
100.43
114.34
123.61
128.07
129.71
131.71
136.17
142.60
148.36
150.76
148.89
143.91
137.21
128.17
114.01
91.91
62.84
33.28
12.83
8.51
19.16
34.75
40.95
27.49
-6.16
-50.82
-93.60
-125.89
-148.34
-169.67
-200.61
-246.92
-305.34
-365.01
-412.96
-439.65
-441.84
-422.06
-385.99
-340.10
-290.50
-242.54
-200.89
-169.09
-148.47
-137.39
-131.25
-123.69
-108.50
-81.59
-42.21
6.53
58.10
103.97
135.76
148.25
141.70
122.31
100.18
85.20
83.10
93.28
109.79
124.27
129.46
121.88
102.30
74.54
43.72
14.55
-9.70
-27.48
-39.14
-46.61
-52.89
-61.04
-72.81
-87.51
-101.91
-111.11
-110.10
-95.51
-66.63
-25.52
23.64
75.99
127.54
176.31
222.49
267.98
315.10
365.02
416.52
464.90
503.14
524.19
523.57
500.90
459.83
406.26
346.18
284.04
221.17
157.41
92.97
30.15
-26.69
-72.81
-105.07
-122.99
-128.72
-127.56
-125.60
-128.00
-137.90
-156.60
-184.15
-218.92
-256.59
-290.07
-313.48
-324.35
-325.37
-323.70
-327.94
-344.80
-375.87
-416.72
-447.50
-449.27
-412.46
-343.35
-259.58
-178.44
-108.88
-51.41
-2.23
42.09
81.06
111.71
131.56
141.13
144.26
144.99
145.06
143.57
138.52
127.48
109.95
89.51
72.82
67.41
75.83
93.76
112.89
126.03
130.16
125.19
114.34
102.71
95.65
96.68
107.34
127.43
155.30
186.39
211.03
219.88
207.20
172.66
120.91
59.61
-3.12
-60.38
-109.82
-154.50
-198.63
-245.23
-294.22
-342.79
-386.28
-419.63
-438.84
-433.11
-401.87
-353.93
-302.37
-255.73
-215.12
-177.07
-143.23
-112.03
-84.39
-63.13
-48.04
-34.82
-16.15
13.41
54.22
102.68
154.24
203.79
246.52
280.49
306.54
327.89
345.03
354.92
351.57
329.59
286.07
222.66
146.76
64.19
-13.55
-76.40
-118.95
-140.86
-142.88
-124.99
-87.42
-33.27
29.49
92.65
146.70
184.56
203.42
205.42
195.77
180.11
163.26
148.91
140.70
135.85
132.44
127.55
117.73
99.93
72.74
37.28
-2.97
-42.58
-77.20
-104.03
-122.78
-135.18
-144.42
-154.46
-169.18
-191.22
-220.16
-252.19
-279.87
-294.83
-290.76
-265.89
-223.71
-171.05
-115.47
-62.72
-16.00
23.70
55.94
80.23
96.51
105.93
111.50
117.29
126.88
142.04
162.38
185.68
208.73
228.61
243.00
250.67
250.80
242.91
227.25
205.14
179.26
153.44
131.86
115.78
105.86
100.12
94.43
84.80
67.73
41.42
5.73
-36.48
-81.27
-124.42
-163.46
-197.97
-229.21
-259.22
-289.65
-321.17
-352.93
-383.00
-407.54
-420.81
-415.54
-385.30
-328.64
-252.22
-170.68
-101.90
-60.16
-49.75
-63.48
-86.72
-104.27
-106.73
-92.78
-67.47
-38.42
-12.73
4.97
12.69
11.38
5.28
1.20
6.74
26.68
59.69
97.18
126.17
134.83
117.55
77.65
25.67
-24.98
-62.94
-81.86
-80.65
-61.67
-28.82
13.60
61.25
109.42
153.00
187.45
209.79
219.36
218.04
209.65
198.57
188.45
181.14
176.53
172.78
167.13
156.90
141.15
121.60
102.25
87.71
81.05
82.72
90.69
101.46
111.27
118.14
122.75
127.37
133.89
141.83
147.97
147.30
134.35
103.94
53.64
-14.62
-94.90
-179.19
-259.74
-330.83
-384.36
-411.29
-407.27
-376.01
-328.06
-275.34
-225.58
-179.87
-133.55
-80.74
-14.58
64.33
147.51
221.43
272.56
292.52
281.34
247.46
198.02
143.75
91.80
44.96
3.97
-29.68
-52.72
-61.56
-55.37
-38.44
-19.86
-11.70
-22.78
-54.31
-99.76
-147.92
-186.50
-205.32
-198.15
-163.59
-105.27
-29.90
54.02
136.39
202.23
233.10
216.66
155.72
68.07
-21.90
-93.35
-135.34
-148.39
-141.55
-126.42
-112.73
-102.33
-94.12
-86.42
-78.16
-68.81
-57.42
-41.98
-18.88
16.19
66.45
127.82
189.55
237.59
260.07
252.41
218.90
170.42
119.67
76.28
43.46
19.57
1.08
-14.55
-27.56
-36.61
-40.27
-38.27
-31.89
-23.88
-16.69
-11.40
-7.68
-4.33
-0.26
4.81
10.17
14.36
15.77
13.66
8.75
2.45
-3.49
-7.79
-10.01
-10.87
-11.90
-14.64
-19.75
-26.68
-34.13
-40.89
-46.27
-50.09
-52.94
-55.93
-60.13
-66.19
-74.42
-84.95
-97.30
-109.29
-116.45
-113.41
-96.17
-63.95
-19.93
29.32
75.83
111.51
128.03
123.55
103.92
79.06
57.73
44.40
39.39
40.66
45.39
50.45
52.53
46.99
28.40
-7.10
-58.47
-117.96
-172.68
-208.92
-217.68
-198.00
-157.41
-108.83
-65.16
-34.38
-17.53
-10.76
-7.92
-4.79
-0.22
4.53
7.37
7.52
6.42
6.86
10.38
15.82
19.59
17.81
9.16
-4.03
-16.57
-23.07
-20.41
-9.59
5.27
19.31
29.42
35.92
41.34
48.60
56.49
63.14
66.20
64.55
59.43
53.69
51.09
53.93
61.83
72.07
81.25
86.41
86.04
83.00
77.62
70.45
61.87
51.86
40.21
27.39
14.27
2.02
-8.22
-16.17
-21.69
-25.03
-26.61
-27.47
-27.48
-26.19
-23.16
-18.22
-12.04
-5.23
1.55
7.67
12.70
16.68
19.83
22.60
25.51
28.61
31.86
34.90
37.23
38.58
39.17
39.46
39.76
39.94
39.19
36.47
31.16
23.32
14.05
4.79
-3.26
-9.62
-14.52
-18.41
-21.51
-23.52
-24.04
-22.86
-20.27
-16.91
-13.26
-9.47
-5.34
-0.68
4.31
8.90
12.24
13.65
13.02
10.73
7.35
3.33
-1.08
-5.70
-10.30
-14.60
-18.35
-21.61
-24.63
-27.73
-30.96
-34.05
-36.55
-38.09
-38.62
-38.37
-37.69
-36.79
-35.71
-34.36
-32.84
-31.39
-30.43
-30.29
-31.06
-32.60
-34.58
-36.65
-38.37
-39.32
-39.04
-37.21
-33.74
-28.91
-23.31
-17.72
-12.85
-9.25
-7.15
-6.53
-7.24
-9.02
-11.57
-14.60
-17.71
-20.47
-22.59
-23.91
-24.56
-24.84
-25.12
-25.57
-26.09
-26.16
-25.29
-23.22
-20.25
-17.13
-14.82
-14.00
-14.86
-17.21
-20.74
-25.40
-31.41
-39.15
-48.63
-59.48
-70.86
-81.69
-90.97
-97.57
-100.31
-97.65
-88.22
-71.34
-47.71
-19.50
10.16
37.87
60.81
77.11
86.14
88.29
84.85
77.65
68.72
59.94
52.56
47.10
43.35
40.61
38.16
35.55
32.71
29.96
27.89
27.03
27.73
30.07
33.74
38.47
44.14
50.91
59.06
68.74
79.65
91.09
102.15
111.91
119.73
125.16
127.97
127.99
125.11
119.28
110.62
99.52
86.55
72.39
57.77
43.28
29.44
16.68
5.37
-4.10
-11.46
-16.67
-19.85
-21.32
-21.53
-20.94
-20.06
-19.43
-19.46
-20.55
-22.83
-26.17
-30.13
-34.19
-37.75
-40.46
-42.22
-43.20
-43.79
-44.39
-45.28
-46.44
-47.64
-48.33
-47.96
-46.13
-42.68
-37.77
-31.73
-25.05
-18.33
-12.22
-7.33
-4.18
-3.07
-3.94
-6.37
-9.65
-13.06
-16.11
-18.57
-20.59
-22.44
-24.32
-26.19
-27.84
-28.98
-29.54
-29.55
-29.23
-28.78
-28.30
-27.83
-27.42
-27.30
-27.69
-28.76
-30.38
-32.29
-34.25
-36.16
-38.08
-40.06
-41.93
-43.18
-43.12
-41.20
-37.19
-31.27
-23.74
-14.85
-4.83
6.00
16.94
27.02
35.31
41.30
45.24
48.02
50.61
53.68
57.40
61.49
65.54
69.38
73.04
76.74
80.66
84.71
88.56
91.64
93.18
92.26
88.12
80.35
69.18
55.45
40.41
25.27
10.99
-2.04
-13.76
-24.19
-33.28
-40.76
-46.44
-50.18
-52.09
-52.22
-50.59
-47.07
-41.65
-34.72
-27.02
-19.68
-13.68
-9.53
-7.12
-5.91
-5.31
-4.95
-4.88
-5.24
-6.06
-7.08
-7.87
-8.15
-7.94
-7.63
-7.63
-8.28
-9.42
-10.63
-11.38
-11.26
-10.22
-8.53
-6.69
-5.21
-4.50
-4.75
-5.92
-7.85
-10.32
-13.18
-16.34
-19.71
-23.03
-25.90
-27.76
-28.09
-26.67
-23.64
-19.42
-14.59
-9.64
-4.88
-0.46
3.48
6.77
9.05
10.11
9.86
8.56
6.76
5.11
4.10
3.85
4.16
4.58
4.76
4.66
4.55
4.92
6.18
8.48
11.55
14.93
18.21
21.26
24.28
27.51
31.03
34.53
37.48
39.34
39.87
39.10
37.39
35.13
32.44
29.31
25.59
21.49
17.87
15.86
16.55
20.53
27.68
37.14
47.82
58.63
68.96
78.84
88.53
98.05
107.41
116.60
125.64
134.70
143.91
153.43
163.68
174.79
185.56
194.33
199.08
197.89
189.45
173.47
150.96
124.34
95.51
63.16
24.98
-21.11
-74.83
-132.21
-186.43
-230.17
-257.80
-269.08
-271.14
-272.22
-278.67
-293.05
-315.44
-346.43
-387.84
-439.83
-500.09
-564.38
-622.95
-664.96
-683.55
-679.96
-664.20
-650.15
-647.68
-632.71
-583.48
-486.53
-347.11
-186.20
-28.16
108.52
206.88
273.30
314.86
333.74
332.80
316.82
293.49
272.69
262.86
269.00
293.11
330.64
370.43
399.83
407.64
387.81
342.00
278.80
211.83
156.73
124.13
116.45
129.39
154.79
185.02
215.41
243.43
266.90
283.30
288.49
278.81
253.79
217.39
177.79
143.81
119.77
103.00
85.49
57.39
12.54
-49.00
-121.24
-194.40
-254.38
-287.22
-286.10
-255.03
-206.07
-151.00
-97.61
-49.97
-9.89
21.52
43.75
57.03
63.12
64.78
64.88
65.54
65.07
60.79
50.54
33.87
12.28
-10.77
-32.04
-49.43
-63.23
-76.40
-92.68
-115.26
-145.83
-183.75
-221.43
-250.05
-259.88
-242.81
-196.02
-123.99
-39.54
39.04
95.12
120.40
117.67
99.29
81.29
75.76
84.55
100.84
110.70
102.81
76.27
39.44
2.86
-25.71
-48.98
-71.44
-94.85
-115.80
-125.54
-113.85
-74.29
-10.24
66.52
140.70
199.54
235.57
247.05
237.16
212.03
178.67
144.20
115.25
97.94
93.79
96.63
93.45
69.84
16.53
-66.68
-171.10
-282.58
-383.08
-458.09
-500.10
-509.09
-489.54
-447.16
-386.88
-312.64
-227.87
-131.37
-22.45
96.82
220.74
342.59
456.77
559.38
647.18
692.24
674.01
589.86
459.35
311.73
171.43
52.75
-38.87
-100.94
-141.52
-163.63
-168.79
-158.22
-134.34
-100.04
-57.27
-8.99
40.91
86.88
127.13
155.07
165.71
157.40
133.11
99.48
63.41
30.02
1.93
-17.68
-27.80
-30.84
-33.58
-44.08
-66.97
-100.04
-134.36
-159.13
-167.43
-158.42
-136.97
-111.00
-86.53
-64.66
-42.36
-16.09
14.55
45.81
71.13
84.69
83.99
71.02
50.69
28.27
6.55
-14.56
-36.43
-60.45
-84.74
-105.18
-116.41
-114.31
-97.80
-69.42
-34.10
3.09
38.41
69.43
94.69
113.52
126.15
132.74
132.71
125.32
110.17
87.31
56.33
16.33
-34.27
-97.48
-172.50
-257.26
-347.42
-435.20
-510.27
-563.43
-589.25
-588.12
-565.38
-528.14
-484.24
-439.53
-395.79
-351.61
-305.79
-257.92
-208.48
-157.05
-99.89
-33.74
37.78
106.31
171.43
234.84
299.07
359.56
414.35
466.42
518.38
570.97
623.49
674.05
718.91
754.14
776.49
761.69
698.11
588.49
449.51
303.97
170.99
60.30
-26.24
-91.71
-140.76
-175.00
-195.21
-204.96
-207.60
-205.64
-200.97
-194.10
-184.30
-169.98
-147.75
-117.36
-82.39
-51.36
-33.11
-32.67
-47.90
-69.67
-85.37
-82.71
-56.35
-8.62
51.59
113.00
165.74
203.62
223.91
226.10
211.76
177.63
126.42
66.98
11.67
-28.93
-49.66
-51.10
-37.51
-14.17
13.68
42.55
70.38
96.21
119.75
141.28
160.44
175.77
185.20
185.90
175.24
152.11
117.24
72.93
21.52
-35.71
-99.58
-167.38
-237.18
-307.73
-376.22
-437.75
-486.38
-517.20
-527.98
-519.75
-495.80
-461.71
-425.82
-395.56
-375.77
-367.79
-369.60
-376.14
-380.21
-374.00
-337.25
-263.50
-162.59
-56.56
33.01
95.02
130.01
144.77
146.90
141.40
128.21
107.30
80.88
53.66
30.37
13.97
3.95
-1.72
-5.35
-10.04
-16.54
-23.17
-26.78
-24.98
-17.04
-4.34
10.67
26.17
40.67
55.04
72.42
97.53
131.26
173.57
222.18
272.67
319.77
358.33
385.67
402.42
412.07
419.57
429.68
444.36
461.44
474.63
474.93
453.99
407.52
336.99
249.60
156.67
69.77
-2.80
-57.94
-97.47
-125.87
-147.23
-164.42
-179.37
-193.86
-210.08
-230.19
-255.37
-284.28
-310.40
-323.63
-316.13
-288.55
-250.45
-214.11
-187.74
-173.48
-167.42
-165.58
-165.63
-169.84
-183.18
-209.21
-245.89
-281.63
-299.19
-282.63
-229.94
-146.86
-43.54
69.05
180.63
283.25
373.00
448.29
508.28
551.99
567.96
550.84
502.68
432.76
353.70
276.51
206.54
144.09
86.56
32.20
-17.30
-58.54
-87.01
-101.50
-102.89
-95.50
-86.70
-85.05
-96.73
-122.21
-156.06
-188.63
-209.92
-213.55
-199.78
-174.62
-146.33
-121.21
-100.87
-83.98
-68.51
-53.88
-41.10
-31.90
-27.28
-26.68
-28.18
-28.89
-26.89
-21.84
-15.04
-8.51
-4.04
-2.40
-3.04
-4.57
-5.30
-4.15
-1.02
3.16
7.12
9.78
10.71
10.27
9.30
8.66
8.93
10.15
11.88
13.51
14.61
14.96
14.80
14.54
14.60
15.34
16.91
19.21
22.04
25.30
28.68
32.10
35.38
38.19
40.21
41.19
40.79
38.72
34.98
29.56
22.83
15.17
7.04
-0.95
-8.07
-13.77
-17.62
-19.38
-19.06
-16.79
-13.01
-8.50
-3.71
0.88
4.95
8.32
10.93
12.74
13.83
14.35
13.93
12.87
11.17
8.98
6.35
3.62
0.74
-2.14
-4.87
-7.68
-10.23
-12.37
-14.00
-15.23
-16.08
-17.37
-20.00
-22.70
-27.01
-33.57
-42.22
-52.12
-62.18
-71.14
-78.80
-85.50
-92.08
-99.54
-108.15
-117.65
-127.17
-137.49
-146.19
-152.40
-156.32
-158.80
-160.72
-162.28
-163.15
-162.60
-160.11
-155.54
-150.35
-147.00
-148.44
-156.98
-174.26
-201.17
-237.42
-280.69
-325.94
-366.15
-393.62
-402.50
-390.28
-359.47
-316.56
-269.29
-223.60
-181.62
-142.09
-101.16
-60.67
-22.33
11.63
39.20
59.35
72.17
78.46
78.86
73.68
62.97
47.85
30.10
12.07
-3.82
-15.65
-22.48
-24.40
-22.15
-16.68
-7.70
5.56
24.17
48.80
79.15
113.97
151.43
190.08
229.04
268.72
309.84
352.51
395.51
436.14
470.99
497.13
513.47
521.02
522.91
523.09
525.54
533.22
547.36
567.25
589.73
609.40
618.63
609.90
578.53
526.13
460.15
391.15
328.92
278.68
239.37
204.64
168.04
126.36
82.86
43.53
13.39
-5.88
-16.38
-21.89
-26.79
-32.06
-37.32
-39.34
-37.27
-34.59
-37.65
-53.25
-84.47
-129.94
-179.75
-220.78
-238.10
-223.95
-181.33
-121.46
-58.81
-3.25
42.21
85.77
113.55
118.07
98.73
62.70
20.75
-19.72
-39.61
-43.47
-36.53
-25.00
-11.47
2.63
8.80
6.93
-0.11
-7.58
-13.51
-14.26
-10.31
-2.24
7.01
13.77
16.24
12.59
3.86
-7.84
-14.42
-11.44
2.24
21.52
37.97
43.33
28.28
-12.64
-79.49
-160.13
-240.33
-304.48
-340.28
-339.51
-300.50
-233.56
-156.59
-89.75
-43.45
-24.66
-34.29
-69.70
-124.04
-170.40
-186.17
-162.57
-137.43
-124.14
-126.66
-132.36
-138.15
-144.25
-152.06
-165.25
-186.48
-214.03
-237.12
-247.68
-242.16
-223.94
-199.41
-176.52
-164.75
-172.20
-199.69
-235.30
-263.77
-270.55
-247.67
-193.83
-115.33
-25.44
57.02
116.12
146.02
147.66
127.27
92.36
50.75
8.63
-30.56
-69.81
-112.50
-158.47
-205.71
-252.38
-299.46
-350.06
-408.27
-449.92
-458.15
-430.11
-378.22
-318.96
-261.65
-206.38
-148.93
-86.65
-20.26
41.09
87.47
113.52
121.06
116.71
107.85
100.66
97.23
98.05
99.51
99.19
97.62
98.00
103.38
115.42
133.53
149.60
158.86
157.31
143.90
120.29
96.44
74.92
55.93
38.24
19.97
0.86
-19.40
-39.71
-57.27
-74.60
-91.59
-107.09
-120.24
-130.72
-137.65
-140.76
-139.92
-135.16
-126.57
-114.43
-99.18
-81.76
-63.46
-45.17
-27.66
-11.52
2.90
15.73
27.45
38.69
49.83
60.99
72.30
83.82
95.72
108.30
122.90
140.90
163.30
190.34
221.64
256.34
293.26
331.23
369.24
408.31
449.63
494.27
542.81
595.23
650.40
705.56
756.01
795.65
820.64
827.42
813.69
778.88
724.88
655.54
575.31
488.07
396.61
306.12
220.09
140.79
68.95
4.93
-51.09
-99.50
-140.97
-194.61
-265.80
-348.39
-427.98
-491.77
-533.70
-553.80
-554.65
-538.77
-508.14
-461.52
-400.58
-330.19
-259.27
-197.25
-151.45
-124.83
-114.63
-113.54
-110.78
-103.90
-92.37
-78.98
-65.96
-53.90
-42.46
-32.44
-27.85
-34.28
-57.48
-97.83
-150.62
-198.35
-220.61
-208.64
-171.18
-126.92
-91.60
-71.43
-62.78
-58.12
-51.65
-42.96
-35.77
-33.92
-38.05
-45.12
-50.52
-50.22
-42.28
-26.84
-6.24
15.56
34.14
45.46
46.69
37.03
18.25
-6.12
-32.82
-59.80
-86.32
-111.29
-131.49
-141.56
-136.07
-112.59
-70.97
-21.12
22.48
47.77
50.80
36.81
16.22
-0.93
-9.12
-7.74
-0.16
9.05
16.04
19.07
18.50
16.22
14.97
17.55
26.53
42.09
62.74
84.02
99.25
102.95
92.29
68.01
31.61
-10.23
-48.74
-75.84
-90.83
-98.03
-102.93
-107.95
-110.84
-105.38
-85.00
-48.08
3.88
62.39
117.27
160.30
188.07
201.40
204.97
204.62
197.45
193.80
195.62
202.25
207.88
207.17
194.61
167.27
125.38
73.34
19.82
-30.06
-73.98
-112.88
-149.01
-184.61
-219.08
-251.89
-283.30
-306.52
-318.37
-316.27
-298.09
-262.32
-219.04
-172.84
-132.19
-108.09
-107.69
-131.10
-169.18
-205.46
-222.39
-209.42
-165.52
-100.31
-27.81
40.81
98.53
144.49
177.42
195.35
196.60
182.64
156.93
124.30
94.67
71.75
57.93
54.99
64.39
87.45
123.92
172.16
224.12
268.21
290.25
280.03
236.02
166.53
86.35
11.39
-46.57
-82.80
-98.58
-99.63
-92.99
-85.42
-82.06
-85.54
-94.78
-105.75
-113.46
-113.75
-106.12
-94.30
-83.87
-80.80
-88.65
-106.35
-128.37
-146.95
-154.87
-148.91
-130.63
-105.75
-80.96
-60.98
-46.72
-36.04
-25.71
-13.08
2.70
21.44
43.38
70.37
102.05
138.43
178.26
219.36
259.94
298.82
335.40
367.75
391.84
401.54
389.90
351.96
287.72
203.27
108.65
14.89
-69.60
-141.06
-193.00
-220.79
-225.30
-213.29
-194.01
-178.22
-170.00
-169.56
-173.46
-175.89
-171.64
-155.76
-127.40
-88.86
-44.52
1.38
45.32
85.57
121.59
152.20
175.42
189.14
192.65
186.24
170.70
145.67
110.56
65.61
12.32
-45.69
-102.94
-151.06
-180.70
-186.40
-171.33
-144.51
-115.39
-90.24
-71.07
-57.41
-47.09
-38.87
-30.10
-20.35
-11.25
-5.83
-7.58
-18.19
-36.65
-58.85
-79.64
-92.32
-93.95
-85.98
-72.98
-59.71
-47.87
-35.92
-20.00
3.62
37.76
81.32
129.71
176.17
213.74
237.60
244.94
235.81
207.27
163.32
113.96
69.99
36.83
9.94
-15.68
-42.91
-71.16
-99.28
-125.34
-149.15
-172.87
-200.34
-235.21
-278.19
-326.27
-371.92
-404.14
-410.48
-382.56
-319.77
-229.55
-124.27
-16.60
82.77
165.88
227.12
263.36
273.87
261.33
232.36
196.24
162.36
136.41
119.09
107.57
98.96
92.13
87.84
87.03
89.11
91.86
92.58
90.24
86.52
85.45
91.60
107.98
135.11
171.08
212.53
255.20
294.44
325.25
342.68
342.94
325.12
292.62
253.10
216.47
191.27
181.32
184.10
191.61
193.60
181.42
151.00
103.45
43.88
-20.70
-83.17
-137.64
-180.17
-209.33
-226.46
-235.29
-241.26
-249.92
-265.46
-289.68
-321.09
-354.79
-382.94
-396.80
-390.35
-363.76
-324.70
-285.99
-260.02
-252.67
-259.89
-269.66
-268.27
-248.32
-213.57
-177.84
-158.63
-168.85
-210.96
-276.23
-348.41
-409.48
-446.11
-453.01
-432.58
-391.79
-338.13
-276.96
-211.88
-145.38
-79.50
-17.38
37.33
81.98
116.35
143.82
169.65
197.52
228.24
260.50
291.18
317.31
337.82
354.12
370.17
390.54
416.75
436.75
436.98
409.46
356.99
290.13
220.56
158.34
114.66
90.75
84.73
92.96
109.50
127.21
139.00
136.19
111.25
65.81
11.04
-35.63
-59.66
-59.36
-44.98
-30.18
-25.73
-34.51
-51.25
-66.80
-72.57
-64.66
-45.16
-19.21
8.08
33.57
56.75
78.48
98.50
115.49
128.05
135.99
140.48
142.44
140.91
133.12
116.22
89.00
52.91
11.25
-32.17
-74.10
-112.69
-147.74
-180.03
-210.72
-240.98
-271.46
-301.94
-330.86
-354.79
-368.84
-368.26
-350.68
-317.93
-275.93
-232.73
-195.23
-166.12
-143.12
-120.35
-91.60
-53.46
-6.72
44.22
93.42
135.23
165.46
182.10
186.54
184.27
183.39
191.38
211.47
240.21
267.56
280.08
266.24
222.18
154.01
75.80
3.79
-49.13
-76.69
-79.55
-63.31
-37.89
-14.78
-1.24
2.76
0.48
-6.02
-16.89
-32.46
-50.00
-65.60
-73.68
-69.54
-51.25
-21.82
12.16
44.20
71.39
92.42
109.91
128.71
153.77
189.10
234.41
284.16
329.17
359.35
366.45
347.19
304.69
238.81
159.12
80.76
17.10
-25.84
-50.10
-62.18
-68.95
-74.38
-80.26
-86.48
-92.82
-100.31
-109.96
-120.10
-129.50
-136.97
-141.59
-139.21
-128.20
-111.06
-94.65
-84.76
-82.01
-81.66
-76.82
-63.28
-42.85
-25.02
-16.47
-21.35
-38.35
-61.86
-86.03
-108.23
-130.03
-155.26
-186.96
-219.47
-245.44
-256.86
-248.91
-222.54
-183.98
-141.15
-100.18
-64.34
-34.89
-14.73
-8.22
-19.21
-47.52
-86.43
-123.41
-145.65
-146.88
-130.19
-106.17
-85.81
-74.49
-69.97
-65.58
-54.63
-35.02
-10.46
10.80
20.71
16.42
1.75
-13.14
-22.51
-25.11
-22.68
-17.24
-11.34
-4.91
3.96
17.83
38.32
64.94
96.05
129.39
163.39
197.19
230.98
265.04
298.82
330.49
356.80
374.89
383.24
382.78
375.16
361.90
343.26
318.68
287.94
252.07
214.18
178.64
150.81
133.92
128.17
130.42
135.53
137.92
132.94
118.01
86.23
37.23
-23.01
-83.99
-135.83
-173.21
-195.75
-205.89
-206.64
-200.81
-189.96
-175.99
-161.26
-148.06
-137.47
-128.97
-120.94
-111.93
-101.69
-90.52
-79.75
-71.02
-65.87
-64.51
-66.12
-69.42
-73.62
-79.18
-86.83
-97.88
-112.00
-129.64
-150.54
-172.21
-189.65
-196.38
-187.07
-159.59
-117.04
-68.48
-21.47
17.60
45.98
64.94
78.10
88.28
96.27
99.84
97.70
89.97
78.44
66.46
57.46
54.73
58.58
68.00
80.80
93.91
103.19
104.01
93.28
69.54
37.40
4.53
-21.60
-36.83
-41.38
-38.78
-33.46
-28.07
-22.98
-17.04
-9.94
-2.71
2.69
4.74
3.46
0.28
-2.46
-2.73
0.48
6.35
13.05
18.65
21.89
22.79
22.28
21.82
22.44
24.58
27.60
30.11
30.85
28.99
24.47
17.88
10.23
2.20
-5.70
-13.30
-20.80
-28.40
-36.12
-43.57
-50.19
-55.21
-58.40
-59.45
-58.18
-54.62
-48.97
-41.66
-33.18
-24.15
-15.22
-7.71
-2.36
0.50
0.94
-0.74
-4.10
-8.67
-13.95
-19.51
-25.82
-32.78
-39.93
-46.71
-52.61
-57.29
-60.69
-62.96
-58.65
-47.28
-30.38
-10.40
10.21
29.73
47.15
62.18
74.89
85.43
93.33
98.72
102.07
103.93
104.74
104.73
104.05
102.61
100.03
95.26
87.59
76.69
62.49
45.13
25.09
3.10
-17.65
-36.01
-51.44
-63.87
-73.54
-80.97
-86.75
-91.35
-94.81
-96.78
-97.18
-95.80
-93.30
-90.71
-89.27
-89.87
-92.57
-96.42
-99.55
-102.27
-102.21
-99.22
-94.71
-90.76
-89.20
-90.48
-93.75
-97.70
-101.31
-103.82
-105.33
-105.72
-104.76
-102.51
-100.30
-100.83
-106.88
-119.24
-134.78
-147.68
-151.78
-144.17
-126.85
-105.68
-87.65
-77.40
-75.53
-78.87
-83.17
-85.22
-85.37
-84.38
-81.21
-73.81
-59.78
-37.66
-7.39
29.63
70.77
112.10
148.98
179.40
201.45
213.05
212.50
200.31
180.05
157.44
137.94
125.17
124.83
139.49
167.19
201.86
236.37
265.61
287.59
302.62
312.73
327.56
356.28
403.72
468.14
542.83
618.58
685.23
732.67
719.26
624.60
460.11
266.68
89.17
-46.48
-136.88
-192.62
-226.17
-253.25
-276.40
-293.68
-303.84
-308.62
-310.64
-310.92
-304.40
-287.78
-263.84
-235.25
-206.26
-180.53
-160.94
-148.63
-142.89
-141.62
-143.08
-145.90
-145.16
-136.90
-120.29
-98.89
-77.76
-61.18
-49.42
-40.49
-31.04
-15.60
9.68
44.70
83.56
117.07
135.80
134.19
112.03
74.44
30.56
-10.72
-44.37
-71.65
-95.35
-118.78
-143.45
-168.71
-192.35
-211.45
-223.60
-220.67
-198.31
-158.12
-108.30
-59.15
-17.86
13.92
39.13
62.03
85.13
106.80
122.93
129.49
125.70
114.55
101.28
90.73
85.59
84.08
82.05
75.78
63.59
46.78
28.10
10.21
-4.97
-16.35
-22.72
-22.86
-15.56
-0.85
19.90
43.07
64.44
81.59
92.63
98.12
100.02
100.86
101.68
102.68
102.45
100.37
97.65
96.35
98.44
103.99
111.99
119.28
123.79
123.58
119.15
113.24
108.52
106.76
107.25
108.86
107.90
101.95
87.61
63.39
30.19
-10.72
-57.56
-109.66
-165.09
-224.61
-267.91
-277.97
-249.28
-191.65
-123.48
-59.00
-19.65
0.16
7.78
8.97
3.38
-13.30
-36.00
-64.19
-96.99
-133.23
-168.97
-202.72
-233.26
-262.57
-293.79
-329.48
-372.21
-422.44
-479.70
-541.01
-603.99
-664.21
-716.26
-753.14
-767.43
-754.76
-714.33
-649.84
-566.86
-472.03
-370.28
-265.41
-160.53
-58.76
35.65
119.25
190.42
250.73
304.90
358.58
415.72
477.25
540.97
601.21
650.31
680.01
684.01
662.46
620.05
563.67
499.76
432.78
364.32
293.35
217.42
134.51
49.56
-29.97
-96.63
-144.53
-169.62
-169.92
-146.36
-102.96
-45.94
24.29
107.15
199.34
294.03
382.61
457.20
511.95
544.06
521.41
430.04
281.84
110.21
-51.40
-185.30
-288.96
-367.32
-424.59
-468.18
-495.43
-502.93
-491.30
-464.86
-430.04
-391.98
-355.06
-321.50
-291.89
-260.82
-223.85
-180.23
-130.56
-77.74
-25.21
23.83
67.40
104.81
139.57
174.62
210.46
249.19
290.58
332.41
371.08
403.53
428.42
447.83
464.29
479.26
498.04
523.13
553.04
582.96
607.46
622.86
628.46
625.14
580.76
481.85
337.20
173.90
20.55
-106.00
-201.72
-270.42
-318.87
-353.72
-374.87
-381.94
-376.76
-363.76
-347.96
-332.95
-320.34
-311.13
-305.48
-298.79
-286.49
-266.42
-239.03
-206.07
-169.23
-129.85
-89.24
-48.19
-8.72
28.75
63.55
94.46
120.30
140.89
157.15
170.30
180.72
187.70
188.67
179.44
156.86
121.65
79.39
38.73
7.57
-10.06
-15.10
-11.47
-4.18
3.65
11.08
18.53
26.36
34.02
40.36
44.03
45.29
45.60
46.92
50.93
58.12
67.82
78.58
89.00
97.54
103.89
108.50
112.10
115.09
117.12
116.96
112.37
105.44
96.45
85.71
73.61
60.51
46.71
32.48
18.18
4.30
-8.61
-20.89
-33.06
-45.95
-60.48
-77.37
-96.69
-117.77
-139.26
-159.63
-178.26
-195.23
-211.43
-228.42
-248.08
-271.92
-300.25
-331.57
-362.21
-387.23
-401.37
-400.96
-385.33
-357.42
-322.84
-288.09
-258.47
-236.64
-222.45
-213.45
-206.34
-198.23
-187.63
-174.55
-160.00
-145.18
-130.64
-115.96
-99.73
-80.41
-57.07
-30.31
-2.36
23.66
44.78
59.40
67.65
70.95
70.97
68.55
63.37
54.35
40.53
21.91
-0.21
-23.59
-45.78
-64.74
-78.97
-87.41
-89.00
-82.65
-67.30
-42.11
-6.74
38.40
91.58
149.40
207.05
259.42
302.82
336.31
361.97
383.35
403.05
420.64
432.05
431.11
412.11
372.18
312.01
235.11
146.64
53.06
-37.35
-114.24
-166.66
-186.64
-173.42
-135.61
-89.46
-53.18
-39.84
-52.31
-82.71
-116.73
-140.32
-145.28
-131.52
-105.37
-75.67
-49.98
-32.61
-24.66
-25.27
-32.96
-46.23
-63.34
-81.87
-98.61
-110.24
-114.76
-112.49
-106.28
-100.04
-96.47
-95.02
-91.79
-81.26
-59.56
-27.11
10.88
46.45
72.50
85.93
88.70
85.93
82.80
81.70
81.59
79.30
71.89
58.59
41.31
23.75
9.62
1.22
-1.13
1.01
5.32
9.53
12.27
13.69
15.61
20.69
31.05
47.11
66.86
86.26
100.34
104.46
96.69
79.03
56.96
37.16
25.64
25.78
37.74
58.08
80.15
96.90
103.31
97.56
80.33
54.35
23.53
-7.43
-35.00
-58.41
-77.99
-93.90
-105.96
-114.62
-121.34
-127.86
-135.20
-145.42
-162.65
-189.90
-226.03
-265.12
-298.24
-316.21
-311.06
-276.78
-200.84
-87.75
37.30
141.60
206.17
233.01
236.15
230.98
233.52
243.82
254.82
261.02
262.88
265.98
276.41
295.13
310.20
310.54
287.23
236.89
165.56
87.77
18.15
-26.68
-39.94
-28.56
-9.82
3.35
4.81
-5.55
-23.65
-46.10
-71.75
-103.53
-140.40
-177.61
-209.78
-235.08
-254.40
-268.09
-274.18
-268.46
-247.52
-210.39
-159.96
-103.15
-49.43
-6.92
20.80
35.09
40.70
42.16
42.17
41.15
38.54
34.03
28.62
24.33
22.75
24.19
27.25
29.82
29.90
26.88
21.38
15.03
9.67
6.49
5.54
5.86
5.99
4.58
1.14
-4.01
-9.91
-15.42
-19.77
-22.90
-25.22
-27.41
-30.09
-33.36
-36.83
-39.71
-41.16
-40.54
-37.85
-33.12
-26.77
-19.32
-11.28
-3.07
4.96
12.44
19.06
24.48
28.45
30.80
31.48
30.63
28.50
25.37
21.51
17.27
12.87
8.59
4.57
0.96
-2.12
-4.61
-6.54
-8.03
-9.09
-9.88
-10.55
-11.32
-12.42
-14.04
-16.34
-19.48
-23.63
-28.67
-34.48
-40.92
-47.81
-54.94
-62.05
-68.87
-75.20
-80.98
-85.93
-89.93
-92.81
-94.36
-94.28
-92.11
-87.28
-79.09
-68.98
-57.64
-45.72
-33.75
-22.10
-10.95
-0.32
9.81
19.37
28.09
35.91
42.67
48.38
53.28
57.89
62.87
68.88
76.35
85.37
96.03
108.14
121.30
135.16
149.41
163.91
178.93
195.49
215.21
239.93
270.18
304.34
338.33
366.70
384.11
386.81
373.69
346.25
308.32
264.56
219.35
175.94
136.19
99.78
63.91
24.21
-23.27
-79.46
-140.81
-199.63
-246.18
-271.19
-268.79
-238.57
-185.97
-120.68
-54.31
2.13
40.54
54.17
42.14
11.03
-27.07
-59.74
-79.41
-85.13
-80.26
-68.90
-53.69
-35.61
-15.12
6.12
25.11
38.95
46.46
48.12
45.78
41.93
39.37
40.76
47.99
61.48
79.95
100.63
120.16
135.72
146.08
151.95
155.07
157.79
160.93
163.81
164.82
162.63
156.95
148.62
139.01
129.10
118.98
107.79
94.57
78.76
60.65
41.30
22.02
3.92
-12.45
-27.19
-40.95
-54.50
-68.40
-82.75
-97.15
-110.75
-122.46
-131.29
-136.66
-138.81
-138.73
-138.04
-138.51
-141.54
-147.57
-155.96
-165.16
-173.48
-179.94
-184.69
-188.82
-193.98
-201.57
-211.99
-224.93
-239.59
-255.43
-272.36
-289.76
-306.25
-320.39
-332.31
-344.57
-361.50
-386.65
-419.76
-455.66
-484.82
-497.52
-488.79
-461.13
-423.05
-384.55
-352.29
-327.25
-306.45
-284.66
-257.93
-225.41
-189.17
-152.17
-116.51
-82.28
-48.38
-14.53
19.88
55.44
93.22
134.65
181.17
233.13
288.64
348.57
404.04
442.49
455.75
446.00
423.60
400.11
382.28
370.95
362.82
352.92
339.10
321.78
302.54
282.46
261.80
239.55
214.81
186.71
153.43
114.65
70.47
20.62
-36.23
-97.41
-158.58
-212.82
-251.55
-267.18
-255.08
-216.18
-157.65
-91.49
-30.25
16.61
45.58
58.81
61.02
56.95
49.43
39.67
28.42
17.14
7.35
0.20
-4.32
-7.84
-12.56
-20.41
-31.79
-45.39
-58.55
-68.59
-74.26
-74.77
-70.68
-63.10
-52.90
-39.86
-22.71
0.21
29.68
64.16
100.38
134.12
161.60
180.45
190.41
193.14
191.27
187.38
183.57
181.47
181.63
183.04
182.70
176.01
158.45
127.86
86.23
39.75
-3.19
-35.54
-54.25
-60.84
-59.74
-55.56
-51.00
-46.56
-41.69
-36.17
-30.87
-27.21
-26.06
-26.86
-27.86
-27.00
-22.86
-15.62
-6.86
1.18
6.60
8.53
7.42
4.62
1.39
-1.64
-4.70
-8.76
-14.67
-22.58
-31.61
-40.00
-46.03
-48.46
-47.11
-42.84
-37.22
-32.02
-29.07
-30.07
-36.12
-46.71
-59.05
-68.04
-67.48
-54.30
-29.46
1.47
30.52
50.46
57.97
54.14
43.50
31.05
19.88
10.97
4.04
-0.88
-3.02
-1.89
0.86
1.87
-3.29
-17.43
-39.52
-64.13
-83.53
-91.09
-83.64
-64.48
-40.16
-17.52
-1.09
8.11
11.56
11.64
10.18
8.10
5.81
3.98
3.43
4.79
8.57
14.38
21.34
28.06
32.99
34.91
33.39
28.65
21.71
14.06
7.19
2.46
0.55
1.45
4.44
8.39
12.20
15.35
18.12
21.34
26.14
33.05
41.61
50.28
56.84
59.15
55.86
46.56
31.65
12.36
-9.05
-29.28
-44.16
-50.33
-46.57
-34.62
-18.76
-3.94
6.51
12.00
14.23
15.40
16.34
15.89
12.19
4.34
-6.28
-15.92
-20.06
-15.34
-1.44
17.90
35.87
44.58
38.00
14.27
-22.63
-63.73
-97.78
-115.00
-110.65
-86.22
-48.78
-8.56
24.22
42.47
43.42
28.73
3.48
-25.96
-53.52
-74.65
-86.90
-89.71
-82.83
-67.14
-44.56
-18.66
5.49
22.63
28.71
22.15
4.35
-19.99
-44.58
-63.08
-70.64
-65.26
-47.78
-21.17
10.11
42.00
72.99
103.37
134.14
165.60
196.21
220.26
232.96
231.93
213.70
179.74
136.95
96.03
67.89
59.06
69.60
92.40
116.96
134.38
141.94
142.82
143.16
147.25
154.48
159.49
153.37
128.74
82.66
17.84
-58.43
-135.34
-202.64
-253.26
-284.13
-298.11
-300.63
-297.43
-292.56
-289.57
-291.67
-302.77
-326.13
-349.04
-359.32
-347.13
-309.14
-249.04
-176.62
-103.49
-40.50
5.57
34.17
48.36
54.38
56.75
61.61
67.23
71.19
70.28
62.63
49.42
34.63
23.99
22.83
33.75
54.29
78.72
100.29
114.71
122.40
124.82
123.70
120.05
113.98
104.73
91.46
75.38
58.68
43.82
31.57
20.71
8.81
-6.45
-26.04
-48.45
-70.34
-88.00
-98.91
-102.81
-101.33
-96.88
-92.25
-88.21
-84.44
-79.78
-73.03
-63.76
-52.67
-41.61
-32.82
-28.05
-27.79
-31.51
-37.94
-44.76
-50.44
-54.60
-58.25
-62.40
-67.91
-74.38
-80.72
-85.23
-84.43
-76.52
-60.31
-36.79
-8.42
20.71
46.21
64.59
75.24
83.20
95.53
118.60
154.49
201.78
256.38
314.16
372.31
419.38
448.65
457.06
446.21
420.38
385.76
347.56
309.94
274.64
242.69
218.74
205.78
210.58
229.16
255.46
281.80
299.77
299.50
274.28
227.29
165.74
97.85
30.23
-32.80
-91.17
-145.51
-199.85
-256.89
-311.62
-358.34
-393.45
-415.49
-424.20
-421.15
-395.12
-341.19
-282.88
-229.23
-174.57
-118.60
-63.50
-11.21
37.71
84.63
128.96
169.16
205.54
234.56
250.12
248.96
232.65
206.39
176.42
145.50
114.01
83.83
55.20
26.77
-2.55
-34.27
-71.05
-116.27
-173.80
-245.01
-325.06
-404.97
-472.93
-515.44
-521.25
-486.22
-415.92
-325.94
-237.36
-169.11
-133.12
-131.89
-159.84
-207.76
-267.15
-331.09
-393.30
-446.37
-481.25
-489.56
-466.80
-414.36
-339.58
-253.66
-167.41
-89.63
-27.49
12.85
27.47
16.78
-12.40
-47.34
-72.40
-72.26
-37.14
33.62
131.69
243.39
354.51
454.21
536.00
589.35
604.56
579.96
524.47
452.70
377.97
308.67
248.96
199.43
158.38
124.52
97.03
75.21
58.38
46.29
38.21
34.44
34.00
33.25
27.99
15.07
-6.19
-33.22
-58.27
-73.03
-71.49
-52.81
-21.58
15.72
53.16
85.94
111.69
127.50
130.39
118.93
94.23
59.68
20.96
-16.15
-48.49
-77.22
-107.41
-145.80
-197.37
-257.94
-318.64
-366.28
-387.00
-371.57
-318.83
-236.40
-138.10
-40.15
42.62
99.78
128.28
133.00
124.41
115.20
116.12
133.09
165.87
206.73
242.27
259.54
253.51
228.37
192.37
151.44
107.94
62.76
18.34
-20.07
-45.18
-49.83
-31.54
5.41
49.68
87.27
106.76
103.31
80.75
46.23
8.34
-26.32
-55.21
-80.66
-107.13
-138.76
-177.63
-221.62
-267.94
-312.77
-351.59
-372.41
-365.90
-329.55
-270.72
-212.81
-166.20
-135.10
-120.08
-118.25
-126.56
-141.35
-157.96
-171.86
-180.41
-181.91
-178.86
-175.13
-173.37
-174.41
-178.16
-184.27
-192.56
-202.78
-212.84
-221.31
-226.84
-228.43
-226.13
-221.71
-217.73
-216.61
-219.41
-224.80
-231.01
-236.09
-238.43
-237.27
-232.98
-226.60
-219.20
-211.13
-201.45
-188.94
-172.41
-151.07
-124.95
-94.99
-62.80
-30.22
1.17
30.58
57.68
82.58
105.62
127.20
147.64
166.94
184.89
201.05
214.88
225.64
232.55
234.81
231.85
223.37
209.46
191.12
169.68
146.69
123.52
101.26
80.71
62.56
47.32
35.28
26.99
22.68
22.34
25.64
32.01
40.93
52.12
65.58
81.37
100.54
123.61
150.27
179.08
207.63
233.39
254.36
269.68
279.62
288.11
299.34
316.36
339.90
368.25
398.56
427.87
453.94
475.22
496.16
520.74
550.63
583.64
614.45
637.66
650.19
652.24
646.70
646.19
661.84
699.29
755.81
821.46
884.27
934.87
968.67
985.70
999.90
1025.12
1070.42
1136.69
1217.73
1304.69
1389.43
1465.13
1457.12
1314.00
1019.17
606.39
146.15
-288.90
-651.45
-925.76
-1118.88
-1248.33
-1321.68
-1344.06
-1321.13
-1263.56
-1187.26
-1108.85
-1040.57
-988.05
-951.09
-917.63
-875.66
-818.06
-745.87
-666.93
-591.20
-526.22
-475.26
-438.05
-406.88
-374.62
-337.56
-297.15
-258.84
-228.72
-210.57
-204.25
-206.89
-211.97
-213.85
-209.50
-199.34
-186.34
-173.82
-163.79
-156.16
-149.61
-141.66
-130.92
-117.79
-104.46
-93.73
-87.44
-85.71
-86.58
-87.38
-85.65
-80.55
-73.11
-65.70
-61.06
-61.33
-67.88
-80.40
-96.51
-111.16
-117.38
-108.39
-80.54
-37.51
12.00
54.14
75.66
70.13
41.59
2.90
-30.22
-46.12
-41.56
-20.92
7.28
35.12
57.77
72.97
79.19
74.78
58.95
33.43
3.71
-22.00
-37.05
-39.04
-30.61
-17.39
-4.18
7.50
19.13
33.34
50.75
68.40
81.10
84.27
76.67
61.61
45.69
35.13
32.66
36.23
40.64
40.92
35.45
26.35
18.01
14.18
15.75
20.69
26.04
30.34
34.81
42.64
56.17
73.64
89.91
98.67
95.73
81.69
61.70
42.13
27.23
17.45
10.30
4.19
0.76
4.41
19.15
44.66
74.07
96.27
100.75
82.77
45.92
0.38
-41.71
-71.61
-86.68
-90.11
-87.45
-83.31
-79.68
-76.63
-74.15
-73.99
-80.49
-97.53
-128.77
-174.07
-228.20
-281.35
-321.89
-340.33
-332.60
-301.50
-254.76
-201.57
-148.11
-96.64
-46.26
4.89
57.84
112.55
168.43
225.59
284.50
345.28
404.09
452.39
479.13
475.09
436.95
368.62
280.33
184.88
94.54
16.57
-47.17
-98.58
-140.40
-170.50
-184.84
-181.13
-168.33
-152.48
-137.98
-124.77
-113.55
-105.04
-99.88
-99.12
-103.65
-113.00
-123.28
-128.99
-124.33
-102.38
-62.97
-14.44
29.67
58.03
66.85
60.60
46.76
31.73
18.47
6.83
-4.26
-14.93
-24.12
-30.48
-33.14
-32.98
-31.97
-32.51
-36.25
-43.19
-51.73
-59.41
-64.08
-64.60
-61.47
-56.30
-50.65
-45.91
-42.66
-40.56
-38.83
-36.85
-34.54
-32.40
-30.86
-30.17
-30.34
-31.02
-31.71
-32.05
-32.16
-32.51
-33.61
-35.26
-36.72
-36.89
-34.73
-29.58
-21.23
-9.94
4.16
19.41
35.45
52.57
71.39
92.67
116.98
144.45
174.21
203.89
229.47
246.06
248.97
235.23
204.86
160.93
108.83
54.65
3.62
-40.87
-77.19
-105.16
-125.17
-137.57
-142.60
-140.76
-133.28
-122.27
-110.28
-99.28
-89.67
-79.98
-67.54
-50.06
-27.15
-1.03
24.43
45.53
60.66
70.99
79.66
89.91
103.28
118.79
133.53
144.27
149.04
147.90
142.60
135.41
127.90
120.49
112.64
103.62
93.17
81.75
70.17
58.91
47.74
35.74
21.98
6.10
-11.03
-27.56
-41.30
-50.59
-54.99
-55.42
-53.67
-51.55
-50.35
-50.39
-51.40
-52.73
-53.79
-54.12
-53.35
-50.92
-46.10
-38.30
-27.35
-13.98
0.18
13.11
23.00
28.76
30.30
28.33
23.97
18.33
12.29
6.46
1.77
-0.92
-1.21
0.53
2.99
4.60
4.47
2.98
1.81
3.71
10.81
23.47
39.98
57.36
72.86
85.24
94.91
103.21
112.27
123.80
139.03
158.52
181.86
207.35
231.83
251.13
257.55
246.64
219.63
184.44
152.46
133.03
129.39
138.89
156.21
175.99
195.59
213.86
229.72
241.01
244.68
237.79
219.07
189.81
153.28
114.12
76.46
42.84
13.61
-12.58
-37.76
-63.37
-89.64
-115.67
-139.64
-160.06
-176.58
-190.47
-204.18
-220.44
-240.94
-265.90
-294.00
-323.03
-350.76
-375.98
-398.93
-420.84
-443.56
-468.99
-499.04
-535.37
-578.39
-626.12
-673.44
-712.66
-735.46
-735.94
-712.94
-670.69
-616.94
-559.80
-504.95
-454.31
-407.08
-361.57
-316.96
-273.65
-232.93
-196.13
-164.08
-137.37
-116.29
-100.82
-90.31
-83.32
-77.25
-68.73
-54.64
-32.85
-3.00
33.59
74.60
117.45
159.86
200.04
236.17
265.86
286.12
293.94
287.43
267.10
236.37
200.93
167.51
142.63
131.27
135.92
155.38
184.44
214.76
235.98
238.98
219.46
180.62
132.84
90.23
64.93
61.99
79.52
108.47
137.75
159.41
171.70
178.96
188.58
206.74
235.56
275.83
324.99
379.78
437.37
495.67
553.11
608.45
660.23
706.96
751.60
796.55
843.15
889.36
929.85
957.55
966.67
954.79
898.64
787.75
624.22
425.07
216.10
21.84
-142.28
-271.82
-369.96
-443.16
-490.09
-513.81
-517.08
-504.67
-484.38
-465.53
-456.11
-459.93
-476.52
-497.61
-512.29
-510.36
-487.28
-445.33
-391.42
-335.81
-283.92
-239.52
-203.49
-176.29
-156.33
-140.49
-124.86
-105.17
-78.40
-43.86
-5.12
33.16
66.14
90.96
106.48
112.85
111.25
104.07
95.47
89.07
88.37
95.25
109.47
128.44
147.93
163.00
168.86
161.46
135.45
86.28
12.04
-84.73
-196.76
-313.98
-425.89
-524.17
-592.85
-619.20
-597.30
-531.22
-433.92
-321.83
-210.17
-109.18
-23.91
44.88
97.61
135.79
162.01
179.69
192.48
202.00
209.28
213.96
215.06
210.27
197.38
175.22
144.27
106.64
63.69
17.32
-30.24
-76.46
-119.53
-158.53
-193.37
-224.89
-242.76
-241.66
-220.07
-180.86
-129.92
-74.23
-19.94
28.94
70.62
104.98
131.37
150.11
162.29
169.66
174.84
178.69
180.60
178.90
171.59
155.75
129.88
94.33
51.40
6.05
-37.04
-74.63
-105.37
-129.32
-148.11
-163.71
-177.90
-191.73
-204.81
-214.95
-217.88
-208.82
-184.98
-148.04
-104.29
-62.33
-29.81
-10.55
-3.79
-5.25
-9.90
-14.52
-18.03
-20.87
-23.21
-24.42
-23.31
-19.31
-13.22
-7.24
-4.17
-6.54
-15.57
-30.55
-49.53
-70.07
-90.05
-108.28
-124.41
-138.66
-151.32
-162.46
-171.39
-177.29
-179.53
-178.07
-173.45
-166.55
-158.14
-148.39
-138.84
-129.87
-121.40
-113.20
-105.17
-97.46
-90.37
-84.33
-79.70
-76.64
-74.76
-73.61
-72.70
-71.61
-70.20
-68.40
-66.32
-64.14
-62.17
-60.35
-58.73
-57.26
-55.78
-54.14
-52.13
-49.61
-46.36
-42.36
-37.54
-32.02
-26.05
-20.03
-14.37
-9.49
-5.79
-3.50
-2.74
-3.40
-5.19
-7.74
-10.67
-13.64
-16.31
-18.50
-20.12
-21.21
-21.79
-21.91
-21.57
-20.64
-19.02
-16.48
-12.85
-8.04
-2.12
4.82
12.53
20.63
28.77
36.43
43.21
48.70
52.61
54.74
55.19
54.18
52.18
49.82
47.71
46.36
46.03
46.78
48.39
50.61
53.18
55.88
58.74
61.84
65.22
68.66
71.79
74.06
75.15
75.18
74.72
74.93
76.98
81.78
89.51
99.60
110.82
121.85
131.70
140.15
147.85
155.79
164.97
175.72
187.86
200.57
213.10
224.98
236.32
247.95
261.23
278.17
300.92
331.03
368.02
408.17
444.39
467.61
470.06
448.15
404.52
347.41
288.03
236.49
198.81
175.97
164.75
160.04
156.83
151.52
142.17
128.26
110.55
91.15
73.39
60.80
56.07
59.41
67.91
76.07
77.83
69.35
50.81
26.56
2.86
-14.91
-24.26
-26.11
-23.65
-20.41
-18.71
-19.52
-23.15
-29.82
-39.55
-51.56
-63.68
-72.85
-76.67
-74.92
-70.11
-66.26
-66.61
-72.07
-81.08
-90.66
-98.10
-101.87
-101.49
-96.71
-87.07
-72.58
-54.59
-36.11
-20.93
-12.09
-10.40
-14.50
-21.69
-29.39
-36.28
-42.57
-49.53
-58.74
-71.57
-88.37
-108.04
-128.03
-144.70
-154.69
-156.38
-150.31
-138.57
-123.39
-106.02
-86.72
-65.89
-45.10
-27.03
-14.16
-7.18
-4.34
-2.07
3.08
12.55
25.11
37.54
46.49
50.31
49.59
46.39
42.85
40.06
37.90
35.65
32.74
29.18
25.44
21.99
18.71
14.98
9.96
3.44
-3.82
-10.08
-13.45
-12.71
-8.05
-0.83
7.23
14.94
22.19
29.50
37.20
44.57
50.07
52.08
50.18
45.74
40.94
37.45
34.88
31.02
23.37
11.30
-2.95
-15.11
-21.23
-20.47
-15.79
-12.58
-15.59
-25.74
-39.20
-48.99
-48.65
-35.73
-13.37
11.26
30.39
39.43
38.90
33.24
27.78
25.27
24.59
21.87
13.73
-0.04
-15.78
-28.04
-33.07
-30.99
-25.67
-21.98
-22.80
-27.36
-32.13
-33.50
-30.19
-24.07
-18.78
-16.99
-18.72
-21.43
-21.83
-18.08
-11.16
-4.43
-1.79
-5.63
-15.59
-28.87
-41.50
-49.95
-52.26
-48.48
-40.00
-28.70
-16.23
-4.22
5.47
10.61
9.14
0.20
-15.05
-33.44
-51.03
-64.63
-72.86
-75.83
-74.30
-68.84
-60.29
-50.47
-42.57
-40.31
-46.09
-59.50
-77.36
-95.55
-110.99
-122.70
-130.92
-135.55
-135.37
-128.66
-114.69
-94.85
-72.17
-49.60
-28.29
-7.34
15.24
40.81
69.02
97.85
124.56
146.45
161.44
168.32
166.84
158.30
145.85
134.30
128.65
132.07
144.04
160.09
173.34
177.50
169.82
152.47
131.54
114.04
104.52
103.19
106.19
108.19
105.30
96.74
84.65
72.06
61.12
52.17
44.37
36.94
30.09
24.78
21.74
20.12
17.12
8.85
-7.90
-33.80
-66.28
-100.06
-129.01
-148.29
-156.02
-153.62
-144.78
-133.49
-122.44
-111.86
-100.20
-85.51
-67.03
-45.65
-23.46
-2.49
16.16
31.99
44.58
52.73
55.00
50.64
40.80
28.43
16.70
7.25
-0.88
-10.33
-23.40
-39.99
-57.32
-71.11
-77.94
-76.99
-70.16
-60.80
-51.93
-45.02
-39.77
-34.95
-29.50
-23.03
-15.98
-9.16
-3.19
1.87
6.36
10.90
15.87
20.85
24.92
26.82
25.68
21.67
16.05
10.56
6.65
4.71
3.92
3.00
0.84
-2.64
-6.48
-9.08
-9.06
-5.92
-0.22
6.73
13.53
19.19
23.41
26.66
29.77
33.68
38.87
45.06
51.40
56.69
60.07
61.36
61.25
60.89
61.71
65.06
71.71
81.53
92.71
101.56
103.00
92.05
65.93
25.94
-22.21
-69.98
-108.92
-133.76
-143.59
-141.51
-132.52
-121.44
-111.48
-104.17
-99.76
-97.85
-97.78
-98.44
-98.61
-97.30
-93.98
-88.81
-82.36
-75.29
-67.93
-60.45
-52.89
-45.47
-38.52
-32.25
-26.67
-21.68
-17.43
-14.19
-12.44
-12.37
-13.56
-15.00
-15.35
-13.83
-10.45
-6.20
-2.33
0.15
0.98
0.74
0.44
0.99
2.63
4.92
6.94
7.69
6.49
3.18
-1.57
-6.54
-10.03
-10.61
-7.67
-2.01
4.30
8.66
9.03
5.02
-2.27
-10.71
-18.39
-24.23
-28.21
-30.67
-31.68
-30.84
-27.68
-22.49
-16.60
-11.79
-9.43
-9.58
-10.81
-11.24
-9.55
-5.82
-1.25
2.55
4.55
4.71
3.77
2.68
2.07
2.16
2.87
4.04
5.51
6.92
7.75
7.56
6.27
4.42
2.93
2.68
4.03
6.88
10.85
15.76
21.70
28.82
36.86
44.94
51.56
55.37
55.71
53.02
48.54
43.82
40.11
37.95
37.27
37.51
38.08
38.46
38.33
37.57
36.01
33.51
29.82
24.86
18.85
12.35
6.12
0.90
-2.74
-4.79
-5.62
-6.06
-6.98
-9.06
-12.58
-17.25
-22.33
-26.74
-29.59
-30.50
-29.88
-28.75
-28.21
-28.83
-30.34
-31.77
-31.86
-29.94
-26.28
-22.01
-18.57
-16.99
-17.35
-18.93
-20.74
-22.11
-23.03
-23.90
-25.20
-26.93
-28.59
-29.57
-29.43
-28.27
-26.40
-24.14
-21.44
-18.06
-13.75
-8.73
-3.69
0.59
3.63
5.61
7.26
9.48
12.58
16.14
19.17
20.65
20.04
17.45
13.52
8.97
4.50
0.66
-2.14
-3.45
-2.90
-0.59
2.89
6.53
9.25
10.41
10.17
9.26
8.81
9.69
12.11
15.52
18.78
20.53
19.89
16.82
12.10
7.18
3.41
1.60
1.61
2.66
3.55
3.26
1.18
-2.76
-8.14
-14.28
-20.29
-25.28
-28.65
-30.21
-30.02
-28.43
-25.98
-23.22
-20.74
-18.96
-17.88
-17.19
-16.44
-15.21
-13.47
-11.46
-9.48
-7.71
-5.98
-4.02
-1.73
0.55
2.31
3.22
3.56
4.16
5.75
8.42
11.34
13.09
12.60
9.80
5.67
1.89
-0.19
-0.06
1.86
4.69
7.65
10.29
12.43
13.79
13.86
12.11
8.34
3.08
-2.58
-7.31
-10.10
-10.60
-9.08
-6.21
-2.72
0.63
3.29
4.72
4.62
3.08
0.48
-2.52
-5.14
-6.72
-6.87
-5.66
-3.70
-1.95
-1.36
-2.39
-4.74
-7.37
-9.08
-9.10
-7.69
-5.83
-4.66
-4.62
-5.27
-5.70
-5.30
-4.31
-3.47
-3.43
-3.97
-4.05
-2.45
1.21
6.00
10.08
11.82
10.85
8.21
5.63
4.27
4.13
4.30
3.74
2.12
-0.03
-1.88
-2.93
-3.39
-3.82
-4.66
-5.82
-6.94
-7.63
-7.87
-7.85
-7.71
-7.36
-6.61
-5.34
-3.65
-1.80
0.18
2.35
4.94
7.85
10.68
12.81
13.84
13.80
13.11
12.39
11.83
11.37
10.80
10.01
9.20
8.58
8.17
7.69
6.83
5.53
4.22
3.58
3.99
5.24
6.36
6.26
4.33
0.93
-2.85
-5.78
-7.04
-6.71
-5.28
-3.50
-1.70
0.04
1.62
2.61
2.48
0.76
-2.50
-6.56
-10.42
-13.26
-14.67
-14.87
-14.36
-13.65
-13.00
-12.38
-11.46
-9.79
-7.08
-3.40
0.78
4.73
7.67
9.18
9.35
8.79
8.30
8.43
9.23
10.34
11.10
10.91
9.57
7.33
4.85
2.87
1.92
2.17
3.39
5.17
7.10
8.95
10.53
11.63
12.03
11.67
10.93
10.42
10.63
11.54
12.48
12.46
11.03
8.86
7.51
8.65
12.78
18.59
23.49
24.76
21.00
12.93
2.95
-6.10
-12.22
-15.21
-16.42
-17.81
-20.83
-25.50
-30.56
-34.09
-34.57
-31.64
-26.32
-20.57
-16.32
-14.55
-14.80
-15.49
-14.77
-11.59
-6.19
-0.05
4.94
7.36
6.95
4.50
1.40
-1.24
-3.04
-4.39
-6.05
-8.49
-11.60
-14.73
-16.99
-17.72
-16.76
-14.37
-10.97
-7.03
-2.85
1.27
4.97
7.81
9.44
9.70
8.70
6.95
5.00
3.48
2.73
2.80
3.39
3.90
3.77
2.55
0.30
-2.61
-5.54
-7.95
-9.57
-10.48
-10.97
-11.34
-11.83
-12.37
-12.72
-12.37
-10.97
-8.35
-4.72
-0.62
3.32
6.57
8.96
10.62
11.90
13.12
14.55
16.28
18.27
20.34
22.16
23.28
23.33
22.30
20.57
18.87
17.81
17.45
17.33
16.56
14.55
11.30
7.56
4.41
2.61
2.29
2.89
3.59
3.70
2.93
1.14
-1.68
-5.44
-9.85
-14.10
-17.09
-17.80
-16.00
-12.51
-9.15
-7.82
-9.54
-13.94
-19.39
-23.97
-26.35
-26.56
-25.48
-24.29
-23.56
-22.90
-21.49
-18.68
-14.66
-10.30
-6.72
-4.43
-3.04
-1.57
0.88
4.38
8.11
10.84
11.60
10.44
8.38
6.85
6.93
8.78
11.59
14.22
15.80
16.12
15.66
15.05
14.63
14.23
13.46
11.93
9.82
7.61
5.96
5.31
5.56
6.14
6.23
5.28
3.12
0.22
-2.68
-4.75
-5.41
-4.74
-3.48
-2.69
-3.22
-5.21
-7.84
-9.93
-10.56
-9.68
-8.09
-6.79
-6.34
-6.59
-6.89
-6.64
-6.00
-5.73
-6.71
-9.37
-13.26
-17.28
-20.39
-22.02
-22.14
-21.12
-19.23
-16.47
-12.88
-8.57
-4.06
-0.15
2.37
3.08
2.03
-0.11
-2.41
-4.15
-4.90
-4.63
-3.66
-2.40
-1.21
-0.37
0.13
0.55
1.28
2.71
4.91
7.45
9.57
10.60
10.16
8.55
6.43
4.49
3.05
1.95
0.70
-1.01
-3.07
-5.04
-6.27
-6.35
-5.21
-3.02
-0.25
2.55
4.84
6.16
6.32
5.50
4.07
2.46
0.96
-0.43
-1.73
-2.86
-3.43
-3.07
-1.73
0.05
1.25
1.15
-0.35
-2.45
-3.94
-3.99
-2.72
-1.04
-0.07
-0.34
-1.46
-2.63
-3.17
-3.10
-3.11
-3.95
-5.86
-8.41
-10.69
-12.04
-12.27
-11.71
-10.87
-10.18
-9.69
-9.23
-8.54
-7.35
-5.60
-3.34
-0.75
1.84
4.00
5.41
5.92
5.65
4.98
4.32
3.99
4.15
4.76
5.63
6.57
7.41
8.13
8.78
9.38
10.05
10.99
12.32
14.23
16.67
19.31
21.70
23.31
23.81
23.21
21.85
20.06
18.14
16.13
13.88
11.29
8.37
5.31
2.42
-0.06
-1.98
-3.32
-4.20
-4.87
-5.56
-6.45
-7.50
-8.46
-9.04
-8.94
-8.02
-6.41
-4.43
-2.42
-0.70
0.52
1.27
1.56
1.66
1.86
2.47
3.67
5.50
7.59
9.41
10.40
10.31
9.40
8.29
7.67
7.87
8.73
9.69
10.19
10.00
9.30
8.52
8.00
7.77
7.49
6.78
5.49
3.84
2.33
1.42
1.34
2.01
3.08
4.13
4.80
4.93
4.64
4.29
4.29
5.06
6.66
8.77
10.75
12.00
12.26
11.80
11.33
11.70
13.42
16.46
20.25
23.97
26.95
28.97
30.30
31.56
33.35
35.82
38.59
40.84
41.70
40.71
38.00
34.11
29.66
24.75
18.99
11.86
3.28
-6.17
-15.56
-24.15
-31.95
-39.43
-47.05
-54.41
-60.15
-62.54
-60.64
-55.08
-47.91
-41.63
-37.86
-36.66
-36.76
-36.64
-35.61
-34.24
-33.68
-34.63
-36.64
-38.27
-38.01
-35.28
-30.90
-26.60
-23.90
-23.13
-23.24
-22.62
-20.11
-15.87
-11.12
-7.35
-5.31
-4.51
-3.72
-1.81
1.49
5.45
8.88
10.84
11.08
9.93
8.02
5.80
3.61
1.68
0.29
-0.42
-0.51
-0.25
0.09
0.55
1.38
2.88
5.06
7.37
8.90
8.91
7.36
4.91
2.53
0.80
-0.39
-1.62
-3.42
-5.64
-7.45
-7.81
-6.12
-2.73
1.08
3.72
4.10
2.07
-1.41
-4.97
-7.55
-8.86
-9.41
-10.22
-11.96
-14.62
-17.45
-19.40
-19.80
-18.82
-17.25
-15.81
-14.70
-13.39
-11.09
-7.38
-2.67
1.88
4.96
5.83
4.71
2.60
0.70
-0.18
0.15
1.48
3.48
5.96
8.85
12.02
15.24
18.24
20.84
23.15
25.56
28.30
31.37
34.40
37.16
39.63
42.04
44.52
47.24
50.08
52.84
55.34
57.43
59.52
62.11
65.43
69.01
72.54
75.99
79.68
83.82
87.67
90.20
90.01
86.01
77.75
67.13
57.82
54.12
58.97
71.71
88.66
103.78
110.93
100.98
69.51
18.42
-43.80
-101.30
-143.85
-165.21
-162.09
-133.56
-83.33
-19.93
43.59
92.46
114.05
100.86
53.53
-22.48
-113.31
-201.95
-272.30
-314.18
-324.78
-307.49
-269.98
-220.58
-169.38
-121.81
-82.55
-54.63
-38.42
-30.72
-25.29
-15.17
4.39
35.06
73.95
113.08
143.62
160.30
163.58
158.61
151.14
144.66
139.14
132.56
122.75
109.81
96.45
86.46
83.11
87.14
96.52
105.96
108.24
95.70
63.84
14.90
-43.06
-97.17
-134.13
-145.00
-128.75
-92.55
-49.23
-12.68
6.48
3.31
-21.00
-60.67
-106.53
-148.68
-179.34
-194.43
-193.75
-179.86
-156.43
-127.16
-95.46
-64.83
-38.90
-20.76
-11.44
-9.42
-11.21
-12.87
-11.42
-6.06
1.99
10.16
15.84
17.68
16.01
12.55
9.47
8.50
10.19
13.83
17.93
20.92
21.89
20.88
18.81
17.11
17.20
19.96
25.56
33.42
42.52
51.85
60.51
67.93
73.89
78.44
81.40
82.35
80.39
74.35
63.38
47.10
26.10
2.00
-22.87
-46.08
-65.67
-80.77
-91.48
-98.48
-102.61
-104.20
-102.92
-97.92
-88.64
-75.16
-58.82
-41.84
-26.64
-15.44
-9.94
-11.19
-19.38
-33.30
-48.89
-61.10
-64.51
-55.66
-35.26
-8.40
17.66
36.52
45.44
46.18
43.08
40.36
40.56
44.15
50.58
59.88
73.19
91.76
115.17
140.10
161.30
173.91
175.57
167.23
152.42
134.95
116.63
96.54
72.32
42.73
9.49
-22.69
-47.91
-60.98
-58.76
-40.42
-6.90
39.04
92.53
146.14
190.36
215.34
214.44
188.74
148.42
109.84
88.81
93.48
120.79
158.07
189.02
201.03
189.63
158.57
116.63
73.55
37.26
12.99
3.28
8.19
25.80
52.23
82.26
110.21
130.93
140.55
137.33
122.15
98.68
73.20
52.67
42.18
41.81
46.45
48.06
39.82
19.25
-12.03
-49.00
-86.29
-119.94
-150.00
-178.79
-208.84
-240.60
-272.48
-303.92
-333.93
-361.50
-383.84
-400.33
-411.07
-416.49
-416.53
-411.14
-404.10
-398.71
-397.08
-397.00
-398.92
-404.80
-417.84
-439.61
-468.71
-503.80
-537.98
-560.66
-557.64
-523.87
-463.45
-387.99
-310.55
-217.11
-105.03
20.49
123.55
197.87
245.84
279.08
303.22
322.79
341.72
357.78
367.44
366.22
354.08
329.01
290.32
239.85
182.96
126.19
70.62
15.39
-40.83
-93.77
-138.33
-168.04
-176.96
-162.19
-126.13
-80.32
-39.69
-17.55
-18.20
-35.24
-57.86
-73.75
-81.33
-83.27
-86.15
-91.50
-97.50
-96.64
-81.02
-47.27
0.76
52.53
96.05
121.65
126.41
114.20
94.28
76.17
65.78
64.62
71.01
83.10
99.80
121.39
148.70
182.59
223.32
269.91
321.09
375.61
432.17
487.83
537.02
571.71
583.78
568.13
524.95
460.50
385.21
310.31
244.08
190.11
147.24
111.52
78.54
44.99
10.02
-24.29
-53.38
-71.45
-72.95
-54.52
-16.49
36.46
95.89
152.13
197.26
227.09
241.71
243.99
236.82
221.24
196.46
161.45
117.50
69.10
22.53
-16.46
-45.05
-64.71
-79.77
-94.68
-112.28
-132.99
-156.64
-184.80
-218.91
-258.05
-297.41
-328.58
-342.54
-335.12
-309.59
-276.39
-250.45
-243.51
-259.59
-295.09
-342.51
-393.88
-443.99
-488.70
-523.09
-542.95
-543.86
-523.77
-485.08
-434.42
-378.52
-323.04
-270.01
-207.58
-133.66
-56.07
11.26
56.33
71.88
65.85
49.16
31.68
20.39
18.76
28.61
50.67
83.42
121.73
159.72
191.30
214.52
233.01
252.65
279.88
318.05
365.09
405.07
420.98
401.29
347.18
270.97
186.53
103.04
23.78
-51.22
-121.97
-185.26
-236.23
-272.54
-293.85
-302.83
-303.81
-300.61
-295.25
-287.96
-276.52
-258.46
-232.13
-199.39
-164.30
-131.65
-105.09
-86.16
-74.32
-67.02
-61.21
-54.37
-45.06
-32.77
-17.55
0.68
22.14
46.91
74.84
105.09
136.35
167.18
196.73
224.93
252.50
280.34
309.19
339.47
371.15
403.56
435.09
463.22
484.71
496.41
496.27
484.31
462.55
434.08
401.60
366.47
328.89
288.85
247.43
207.33
172.09
144.32
123.92
107.55
89.56
64.18
27.89
-19.04
-72.37
-125.30
-170.80
-203.82
-222.42
-227.83
-223.37
-212.81
-198.97
-183.19
-165.73
-146.87
-127.71
-110.25
-96.67
-88.19
-84.29
-82.67
-80.37
-75.07
-66.19
-55.05
-44.03
-35.38
-30.05
-27.52
-26.21
-24.61
-21.89
-18.40
-15.29
-13.76
-14.44
-17.06
-20.60
-23.95
-26.37
-27.73
-28.50
-29.26
-30.33
-31.65
-32.86
-33.50
-33.32
-32.27
-30.48
-28.12
-25.43
-22.68
-20.22
-18.27
-16.52
-14.08
-9.43
-1.09
11.62
28.02
45.97
62.59
75.37
83.16
86.42
86.99
86.96
87.82
89.99
92.92
95.33
95.64
92.16
83.58
69.54
51.25
31.74
15.38
6.75
8.98
22.76
46.17
75.37
105.99
134.14
157.06
173.16
181.94
183.85
180.25
173.23
165.15
158.03
153.11
150.54
149.30
147.46
142.60
132.67
116.75
95.54
71.16
46.48
23.96
4.81
-11.17
-25.24
-38.82
-52.79
-67.44
-82.71
-98.91
-117.30
-140.12
-169.78
-207.30
-250.61
-293.44
-326.11
-337.96
-320.73
-271.48
-193.49
-95.03
13.03
120.02
217.29
298.95
361.94
405.68
431.73
443.22
443.99
437.57
426.28
411.03
391.65
367.86
339.72
307.86
273.48
238.03
203.14
170.53
141.68
117.50
98.21
83.15
71.00
60.15
49.09
36.76
22.91
7.94
-7.38
-22.22
-36.01
-48.48
-59.56
-69.25
-77.41
-83.63
-87.34
-88.05
-85.53
-79.98
-72.06
-62.81
-53.53
-45.47
-39.64
-36.76
-37.14
-40.72
-47.09
-55.57
-65.27
-75.08
-83.84
-90.38
-93.76
-93.28
-88.69
-80.22
-68.64
-55.11
-41.03
-27.83
-16.79
-8.95
-4.91
-4.93
-8.96
-16.77
-27.89
-41.71
-57.56
-74.52
-91.54
-107.38
-120.77
-130.66
-136.38
-137.83
-135.35
-129.80
-122.19
-113.49
-104.48
-95.77
-87.89
-81.49
-77.42
-76.67
-80.06
-87.90
-99.73
-114.28
-129.89
-144.98
-158.69
-171.22
-183.74
-197.89
-215.01
-235.51
-258.79
-283.47
-308.02
-331.42
-353.65
-375.65
-399.31
-427.12
-461.77
-505.12
-556.84
-613.15
-666.76
-708.49
-730.25
-728.26
-704.50
-665.88
-621.13
-577.17
-536.76
-498.72
-459.97
-418.34
-374.22
-330.30
-289.94
-255.04
-224.88
-196.46
-165.95
-130.58
-90.20
-47.57
-7.16
26.54
51.13
67.51
79.51
92.53
111.51
139.51
176.73
220.30
264.58
301.65
322.49
318.89
286.15
225.68
146.43
63.29
-7.31
-53.68
-73.85
-76.30
-75.68
-85.33
-110.69
-147.22
-183.78
-209.21
-218.21
-213.13
-201.15
-189.26
-180.17
-172.09
-161.55
-147.01
-130.55
-116.73
-109.72
-110.47
-116.04
-121.07
-120.43
-111.61
-95.63
-76.40
-58.64
-46.00
-39.50
-37.65
-37.40
-35.96
-32.04
-26.39
-21.27
-19.23
-21.93
-29.37
-40.02
-51.42
-61.16
-67.49
-69.54
-66.97
-59.42
-46.13
-25.73
3.23
41.80
90.17
147.31
211.01
278.32
346.07
411.37
472.51
529.10
581.91
632.28
680.64
725.30
762.02
785.00
788.82
770.77
732.10
677.85
615.35
552.23
494.75
447.06
411.13
386.72
371.34
360.51
348.19
328.16
295.86
249.60
190.83
123.02
50.09
-25.35
-102.42
-180.87
-259.46
-334.38
-399.05
-445.73
-468.40
-465.20
-439.41
-398.35
-350.46
-302.28
-256.93
-214.17
-172.05
-128.73
-83.58
-36.63
12.23
63.88
119.30
178.00
236.64
289.41
329.99
354.46
363.52
362.34
358.05
356.04
357.36
358.62
354.16
339.35
312.68
275.99
232.79
186.36
138.85
91.78
47.18
7.75
-23.50
-44.41
-54.55
-55.31
-49.22
-39.11
-27.72
-17.62
-11.25
-10.80
-17.73
-32.74
-55.92
-87.16
-126.12
-171.53
-219.89
-264.95
-298.91
-315.21
-311.65
-291.90
-264.14
-237.10
-216.02
-200.33
-184.49
-161.57
-127.22
-81.77
-29.58
23.44
73.17
119.00
162.92
206.98
250.86
291.59
325.44
350.60
368.48
382.60
395.69
407.21
413.12
408.36
390.42
361.92
330.06
303.29
287.08
281.38
280.96
278.51
268.17
247.83
219.15
185.89
151.85
119.22
88.08
57.03
24.73
-8.98
-42.74
-74.24
-101.61
-124.65
-145.15
-166.06
-190.37
-219.57
-253.09
-288.90
-324.32
-357.30
-386.67
-411.81
-432.03
-446.32
-453.64
-453.74
-447.55
-436.41
-420.97
-400.38
-372.42
-335.07
-288.41
-235.55
-182.01
-134.07
-95.82
-67.62
-45.86
-24.42
2.54
37.57
78.22
117.75
147.96
163.47
164.07
154.88
142.85
132.20
121.74
105.61
77.51
35.37
-16.65
-70.14
-116.67
-151.77
-176.23
-193.97
-208.89
-222.78
-235.71
-248.02
-262.16
-282.35
-312.19
-352.28
-398.72
-444.33
-481.68
-505.87
-515.67
-512.84
-500.29
-480.52
-455.28
-426.08
-394.99
-364.90
-338.54
-317.30
-300.33
-284.86
-267.35
-244.77
-215.53
-179.53
-137.78
-91.67
-42.42
9.36
63.46
119.91
178.41
237.96
296.85
352.99
404.44
450.14
490.17
525.67
558.54
590.86
624.61
661.36
701.88
745.54
789.73
829.62
858.95
871.71
864.10
836.12
791.61
736.95
678.68
621.57
567.56
516.31
466.45
416.91
367.56
319.01
272.03
227.06
184.03
142.55
102.28
63.21
25.53
-10.63
-45.38
-79.61
-114.54
-151.04
-188.66
-225.15
-256.76
-279.85
-292.57
-296.03
-293.92
-290.49
-288.30
-286.92
-283.53
-274.73
-258.90
-236.98
-211.91
-187.03
-164.49
-144.63
-126.53
-109.19
-92.14
-75.69
-60.26
-45.83
-31.76
-17.17
-1.62
14.45
29.94
43.68
55.04
64.17
71.94
79.16
86.18
93.06
99.98
107.79
117.83
130.97
146.72
163.08
177.29
187.24
192.42
193.59
191.83
187.23
178.30
162.68
138.48
105.28
64.58
19.17
-27.95
-74.55
-119.45
-162.41
-203.73
-243.92
-283.81
-324.76
-368.74
-418.07
-474.05
-535.43
-597.27
-651.39
-688.59
-702.14
-690.40
-657.59
-611.97
-562.39
-515.11
-472.40
-433.31
-395.48
-357.14
-317.67
-277.27
-236.13
-193.86
-149.69
-103.11
-54.38
-4.46
45.20
93.50
140.19
185.99
232.40
280.60
330.35
379.12
422.42
455.54
475.73
483.77
483.50
479.85
475.93
471.41
462.62
444.69
414.18
370.78
317.06
256.82
193.42
128.95
64.79
2.54
-55.63
-107.78
-153.42
-193.98
-232.01
-269.21
-305.00
-336.24
-359.11
-371.77
-376.08
-377.46
-382.33
-395.24
-416.91
-444.34
-472.47
-496.28
-512.08
-517.64
-511.87
-494.27
-465.22
-426.24
-380.12
-330.27
-279.93
-231.45
-186.06
-144.04
-104.90
-67.60
-30.52
8.23
50.12
95.46
143.00
190.11
233.68
271.56
303.50
331.55
359.31
390.50
427.21
468.91
512.46
552.96
585.44
606.08
613.10
607.01
590.04
565.50
536.71
506.30
475.22
442.69
406.40
363.43
311.74
252.15
190.00
134.61
96.63
83.22
93.63
117.73
139.16
142.46
120.30
76.98
25.50
-19.58
-49.69
-65.09
-72.77
-80.87
-94.09
-112.69
-134.77
-159.09
-185.57
-213.59
-239.41
-255.48
-252.42
-223.09
-166.80
-90.86
-9.28
61.27
106.04
116.58
93.30
45.31
-12.94
-67.31
-109.15
-137.61
-157.98
-176.74
-196.66
-214.57
-223.29
-216.05
-190.64
-150.40
-102.06
-51.77
-1.90
49.65
107.29
174.22
249.65
327.83
399.54
454.79
486.18
491.29
473.10
438.56
395.73
350.85
306.75
263.07
217.97
170.42
121.27
73.00
27.97
-13.09
-51.36
-88.86
-126.32
-161.81
-191.17
-210.47
-218.64
-218.33
-214.35
-210.68
-207.89
-203.38
-194.15
-180.25
-166.66
-162.09
-175.33
-211.19
-267.76
-336.36
-403.78
-456.05
-482.01
-476.46
-441.64
-387.07
-326.45
-272.94
-234.29
-210.09
-193.28
-174.03
-144.24
-100.31
-43.31
22.21
89.49
150.01
194.25
213.55
203.79
168.38
118.98
72.03
42.58
37.88
54.64
81.80
106.66
121.25
125.39
125.20
128.36
139.30
156.76
174.76
185.99
184.93
170.09
143.81
110.60
75.83
44.79
22.74
14.79
25.14
55.24
101.94
157.39
210.61
251.18
272.99
276.78
269.61
261.59
261.19
271.63
289.70
307.46
316.25
310.35
288.98
255.60
215.61
173.47
131.33
89.27
46.68
3.99
-37.30
-75.38
-109.41
-140.30
-170.39
-202.24
-237.80
-277.91
-321.96
-368.09
-412.93
-451.59
-478.03
-486.22
-471.68
-432.88
-371.93
-294.30
-207.86
-121.16
-42.16
23.04
70.78
100.26
113.70
116.08
114.31
115.73
126.62
150.75
188.40
235.97
286.49
331.20
361.72
372.29
361.20
330.92
286.87
235.49
182.29
130.61
81.55
34.54
-11.59
-57.86
-104.84
-153.00
-202.66
-253.63
-304.54
-352.11
-392.15
-420.56
-435.48
-438.37
-433.74
-426.78
-420.70
-414.95
-405.59
-387.62
-357.78
-316.32
-266.92
-214.78
-164.14
-116.74
-71.62
-26.35
21.33
71.97
123.69
172.52
213.83
244.13
262.41
270.59
272.49
272.17
272.41
274.19
277.17
280.84
284.97
289.41
293.24
294.09
288.52
273.26
246.38
208.26
161.30
108.91
54.36
0.47
-49.86
-92.89
-124.39
-141.31
-144.02
-137.01
-127.25
-121.20
-121.92
-128.53
-138.02
-148.21
-159.11
-172.25
-188.53
-205.97
-219.91
-225.01
-218.26
-200.60
-176.09
-148.97
-121.28
-92.66
-61.99
-29.83
0.78
25.50
41.03
47.45
48.49
49.39
54.03
63.15
74.38
84.60
92.44
99.34
108.37
121.43
136.83
149.20
152.16
141.70
118.79
88.95
59.18
34.83
17.50
5.55
-3.66
-11.73
-18.57
-23.18
-24.93
-24.30
-22.36
-19.84
-16.69
-12.67
-8.74
-7.41
-11.93
-24.38
-44.54
-70.11
-98.55
-129.12
-163.72
-205.89
-258.48
-320.88
-387.90
-450.30
-497.48
-520.74
-516.20
-485.82
-436.22
-375.91
-312.15
-249.31
-188.92
-131.31
-77.05
-27.60
15.87
53.38
86.38
117.01
146.57
174.82
200.13
220.62
234.95
242.76
244.56
241.70
236.63
233.07
234.80
243.63
257.78
271.48
276.36
265.07
234.44
187.10
130.24
72.80
22.57
-15.66
-40.73
-54.99
-63.63
-73.65
-91.89
-122.35
-163.91
-209.72
-249.25
-272.25
-272.83
-251.09
-212.27
-163.68
-111.04
-56.78
-0.28
59.99
123.78
187.97
247.13
295.16
327.91
345.11
350.14
348.22
343.91
339.79
336.06
331.92
326.62
319.76
310.79
298.25
280.46
256.84
229.16
201.41
177.56
158.69
141.35
119.19
86.37
41.20
-12.70
-68.70
-120.60
-165.72
-205.11
-241.35
-276.04
-309.02
-339.30
-367.15
-394.82
-424.92
-457.63
-488.70
-510.24
-513.92
-495.17
-455.66
-402.57
-345.16
-290.68
-242.10
-198.20
-156.03
-113.88
-72.91
-36.74
-8.99
8.63
17.38
20.72
22.38
24.38
25.84
23.93
15.60
-0.11
-20.57
-40.27
-53.49
-57.30
-53.64
-49.01
-51.45
-66.81
-95.54
-132.02
-166.77
-190.47
-197.61
-188.29
-167.18
-140.59
-113.64
-88.87
-66.50
-45.73
-26.07
-8.04
7.73
21.32
34.09
47.95
64.00
81.26
96.06
103.42
98.85
79.91
46.95
2.76
-48.51
-102.13
-153.02
-196.20
-227.25
-243.35
-244.19
-232.28
-212.04
-188.27
-164.65
-142.87
-123.27
-105.65
-90.08
-77.18
-67.77
-61.82
-57.84
-52.77
-42.48
-23.08
8.16
52.10
107.77
173.06
245.54
323.05
403.95
487.07
571.43
656.42
741.54
825.88
907.13
980.78
1040.21
1078.20
1089.36
1072.35
1030.91
972.56
905.92
838.02
772.72
710.97
652.31
596.34
543.28
493.85
448.36
406.27
366.49
327.96
290.28
253.81
219.45
187.93
159.42
133.32
108.48
83.74
58.22
31.72
4.51
-22.81
-49.56
-75.13
-99.04
-120.83
-140.04
-156.29
-169.45
-179.91
-188.49
-196.39
-205.02
-215.53
-228.50
-243.54
-259.75
-275.75
-290.42
-303.30
-314.67
-325.56
-337.53
-352.40
-371.23
-393.27
-414.91
-430.30
-433.60
-421.79
-397.03
-366.63
-340.49
-327.14
-330.95
-351.52
-385.20
-427.15
-472.16
-514.15
-545.53
-558.01
-545.17
-505.51
-443.96
-370.25
-294.91
-225.23
-163.40
-107.39
-53.40
1.66
59.44
120.64
185.58
253.63
321.83
384.09
432.03
457.84
457.19
431.29
386.20
330.55
272.09
215.66
163.00
113.52
65.74
18.25
-30.15
-80.36
-132.35
-184.40
-232.83
-272.32
-297.54
-305.07
-294.72
-270.00
-237.45
-205.10
-180.00
-166.27
-163.44
-166.23
-166.08
-154.29
-125.69
-80.91
-26.34
28.77
76.52
113.62
141.60
164.87
187.04
208.20
225.50
235.11
234.93
226.00
211.79
195.98
180.85
166.79
152.82
138.20
122.85
107.07
90.62
72.27
49.98
21.77
-13.24
-54.51
-100.19
-148.32
-197.80
-248.82
-302.21
-357.52
-411.37
-456.92
-485.34
-488.89
-464.27
-414.33
-347.05
-272.81
-200.60
-135.58
-78.61
-27.31
21.89
72.38
126.38
184.54
245.59
305.88
359.18
397.54
413.29
402.23
366.60
316.26
266.57
233.26
226.16
244.96
278.98
311.57
327.04
316.61
280.61
226.50
164.07
100.86
40.21
-17.88
-74.35
-129.03
-180.61
-227.91
-271.13
-311.55
-350.33
-385.88
-412.65
-422.17
-406.44
-362.74
-296.40
-219.86
-147.90
-91.47
-53.38
-29.20
-11.87
3.00
14.62
19.33
15.90
9.22
9.58
26.91
63.72
112.11
157.41
186.62
196.26
194.12
193.65
204.78
227.12
249.59
256.51
236.51
188.13
120.11
47.00
-17.30
-63.97
-90.81
-100.48
-97.98
-88.42
-75.98
-63.44
-52.51
-44.48
-41.01
-44.40
-57.37
-81.91
-118.07
-163.55
-214.54
-267.68
-321.37
-375.50
-429.59
-480.48
-521.27
-542.87
-537.39
-502.01
-441.08
-365.20
-287.26
-218.04
-163.30
-123.28
-94.73
-73.63
-57.23
-44.60
-36.06
-32.04
-32.33
-35.82
-40.82
-45.35
-47.73
-46.80
-41.82
-32.63
-19.37
-2.35
18.25
42.56
71.42
106.56
150.36
204.55
268.14
335.97
398.31
442.82
457.94
437.14
382.00
302.80
216.05
140.07
90.16
74.72
93.26
136.95
191.15
239.47
268.24
269.99
244.53
197.98
139.59
78.15
19.81
-32.78
-80.09
-124.60
-169.54
-217.60
-269.38
-322.42
-370.96
-407.23
-424.05
-417.73
-389.79
-346.18
-295.17
-244.45
-199.14
-161.32
-130.80
-106.17
-85.62
-67.25
-49.20
-29.99
-9.02
13.26
35.91
58.18
79.87
101.79
125.34
152.18
183.78
221.27
264.96
313.45
363.20
409.08
446.37
472.90
490.11
501.65
510.50
516.15
513.88
496.96
460.51
404.75
335.27
260.60
188.09
121.27
59.69
0.99
-56.75
-113.77
-169.51
-223.88
-277.68
-331.72
-385.62
-436.64
-479.97
-510.30
-523.60
-518.47
-496.35
-460.66
-415.62
-365.37
-313.35
-262.10
-213.42
-168.13
-126.06
-86.16
-47.04
-7.58
32.22
70.96
106.15
134.96
155.46
167.59
173.28
175.64
177.03
177.57
174.65
164.17
143.00
111.33
73.55
36.93
8.89
-6.24
-8.80
-3.06
5.57
13.26
19.51
26.10
34.94
46.28
58.50
69.87
80.36
92.14
107.84
127.91
148.98
164.50
167.97
156.55
132.62
102.01
70.35
39.82
8.83
-25.39
-63.26
-100.82
-130.78
-146.03
-143.29
-124.95
-97.94
-70.56
-49.20
-36.87
-33.39
-36.93
-45.28
-56.04
-65.87
-70.23
-64.20
-44.55
-11.79
29.13
70.22
103.28
122.83
127.57
119.76
103.24
81.79
58.48
36.27
18.43
8.17
7.40
15.26
28.18
41.56
52.40
61.11
71.17
86.62
109.28
137.50
167.25
195.04
220.15
244.98
273.11
306.55
344.02
381.31
413.09
435.09
445.44
444.69
435.15
420.08
403.12
387.62
375.68
367.27
359.88
349.46
332.26
306.65
273.98
237.77
201.99
169.28
140.20
113.45
86.88
58.79
28.65
-2.47
-32.55
-59.51
-82.40
-102.24
-121.78
-144.64
-173.73
-209.94
-251.91
-296.57
-340.20
-379.22
-410.58
-432.15
-443.58
-447.35
-448.94
-454.99
-469.95
-492.69
-515.42
-526.10
-513.84
-474.77
-415.15
-349.90
-296.64
-268.36
-268.10
-288.17
-314.28
-331.80
-331.50
-312.23
-279.50
-241.69
-205.23
-172.18
-140.26
-105.57
-66.33
-24.87
12.29
36.65
40.60
19.92
-24.27
-85.41
-152.64
-213.32
-256.26
-274.83
-268.58
-242.87
-206.23
-166.63
-128.40
-91.39
-52.41
-8.18
42.20
96.64
151.43
203.41
251.81
298.25
345.20
394.19
444.89
495.27
543.08
586.74
624.94
655.52
674.57
676.82
657.76
615.78
554.05
479.87
402.46
329.74
266.16
212.20
165.50
123.01
82.27
41.99
1.45
-40.14
-84.53
-134.03
-190.20
-252.10
-314.83
-370.39
-409.35
-424.18
-410.56
-369.46
-306.66
-231.38
-154.48
-86.70
-38.02
-15.03
-20.76
-52.06
-102.09
-161.72
-221.28
-272.15
-307.29
-323.20
-317.52
-291.47
-246.59
-187.27
-119.76
-50.04
16.97
78.78
132.76
179.87
220.90
260.08
300.84
345.01
393.33
444.55
497.61
549.64
602.63
630.44
613.45
544.12
433.48
306.30
185.64
104.47
59.70
44.01
49.91
74.51
114.72
155.29
184.92
194.87
181.49
143.72
88.30
23.89
-37.76
-86.60
-116.47
-125.26
-117.37
-101.49
-89.70
-89.01
-101.66
-123.00
-145.56
-162.63
-169.82
-166.98
-156.32
-141.87
-125.07
-106.56
-86.32
-65.09
-44.65
-26.37
-11.35
0.71
10.91
21.80
35.32
52.25
71.61
91.04
108.26
121.38
130.06
135.75
141.74
151.98
169.53
195.13
226.46
258.84
286.17
302.93
305.90
294.81
271.92
240.97
205.72
169.25
133.79
101.02
72.16
48.16
29.32
15.05
3.90
-6.17
-17.20
-30.46
-45.93
-62.09
-76.31
-85.98
-89.68
-88.11
-84.15
-81.66
-83.88
-91.93
-104.58
-119.06
-132.85
-144.85
-155.79
-167.47
-181.34
-197.56
-214.90
-231.61
-246.45
-259.60
