1672818827.00
64.000000
-0.00
-0.00
-0.00
-0.00
-0.00
-0.00
-0.00
-0.00
-0.00
-0.00
0.00
0.01
0.01
-0.00
-0.03
-0.05
-0.05
0.00
0.13
0.36
0.66
1.01
1.37
1.72
2.06
2.40
2.79
3.24
3.80
4.42
5.06
5.66
6.20
6.68
7.15
7.68
8.31
9.14
10.09
11.04
11.88
12.56
13.14
13.76
14.65
15.96
17.91
20.32
22.90
25.38
27.58
29.57
31.68
34.32
37.81
42.54
48.15
54.10
59.83
64.97
69.58
74.14
79.34
85.71
93.76
103.00
112.62
121.73
129.77
136.75
143.30
150.75
157.77
166.64
177.95
191.79
206.97
220.57
228.25
225.36
208.53
176.87
132.76
80.05
23.07
-34.94
-92.44
-149.16
-205.23
-260.37
-313.74
-363.87
-409.83
-450.91
-486.50
-515.74
-537.23
-549.22
-549.96
-538.37
-514.21
-478.67
-433.88
-382.45
-327.02
-269.84
-212.63
-156.66
-102.95
-52.37
-5.90
35.58
71.43
101.35
125.50
144.38
158.69
169.15
176.37
180.75
182.57
182.07
179.51
175.23
169.65
163.18
156.15
148.81
141.30
133.69
126.02
118.33
110.69
103.16
95.80
88.68
81.83
75.25
68.95
62.95
57.25
51.86
46.78
42.03
37.59
33.45
29.61
26.07
22.81
19.83
17.14
14.70
12.50
10.53
8.76
7.19
5.83
4.67
3.72
2.93
2.30
1.76
1.30
0.88
0.50
0.19
-0.04
-0.19
-0.28
-0.35
-0.43
-0.56
-0.77
-1.02
-1.24
-1.38
-1.40
-1.33
-1.24
-1.25
-1.45
-1.86
-2.40
-2.93
-3.28
-3.38
-3.26
-3.10
-3.14
-3.57
-4.44
-5.57
-6.69
-7.47
-7.74
-7.59
-7.32
-7.36
-8.01
-9.35
-11.13
-12.86
-14.12
-14.65
-14.53
-14.12
-13.88
-14.20
-15.32
-17.35
-20.23
-23.53
-26.32
-27.20
-24.75
-18.15
-7.79
4.70
16.95
26.77
33.01
35.86
36.52
36.33
36.13
35.99
35.55
34.56
33.25
32.28
32.34
33.73
36.10
38.65
40.40
40.67
39.30
36.66
33.00
28.61
23.58
17.89
11.54
4.74
-2.11
-8.51
-13.89
-17.82
-20.08
-20.72
-20.13
-18.86
-17.57
-16.72
-16.46
-16.60
-16.77
-16.55
-15.77
-14.58
-13.33
-12.41
-12.01
-12.06
-12.30
-12.46
-12.36
-12.06
-11.71
-11.51
-11.55
-11.75
-12.01
-12.31
-12.70
-13.27
-14.08
-15.10
-16.20
-17.26
-18.21
-19.16
-20.30
-21.79
-23.47
-24.95
-25.67
-25.11
-23.03
-19.59
-15.39
-11.19
-7.66
-5.00
-3.08
-1.51
0.03
1.71
3.54
5.53
7.95
10.62
13.78
17.77
22.68
28.27
34.04
39.38
43.80
47.09
49.17
50.19
50.15
48.96
46.48
42.75
38.06
32.99
28.22
24.24
21.30
19.29
17.77
16.29
14.46
12.15
9.41
6.40
3.31
0.28
-2.64
-5.48
-8.27
-10.98
-13.57
-16.01
-18.40
-21.03
-24.21
-28.14
-32.72
-37.50
-41.86
-45.23
-47.33
-48.19
-48.01
-46.95
-44.98
-41.94
-37.68
-32.24
-25.92
-19.17
-12.43
-5.96
0.13
5.75
10.74
14.71
17.20
17.86
16.63
13.82
10.08
6.15
2.69
-0.06
-2.24
-4.34
-6.93
-10.53
-15.44
-21.65
-28.77
-36.19
-43.34
-49.89
-55.87
-61.60
-67.60
-74.35
-82.08
-90.75
-100.25
-110.70
-122.39
-135.31
-148.26
-159.15
-165.39
-164.66
-155.47
-137.26
-110.07
-74.03
-29.43
23.18
80.89
137.99
187.38
223.01
242.12
245.78
237.97
223.60
207.85
193.64
181.85
172.76
167.19
166.63
172.09
183.34
198.32
214.78
228.61
234.58
228.26
208.13
176.28
137.43
97.24
51.05
0.26
-49.54
-92.37
-125.63
-149.92
-166.44
-176.12
-179.83
-179.01
-174.49
-168.20
-163.04
-161.65
-166.17
-176.41
-191.33
-209.00
-226.36
-238.13
-238.82
-224.96
-196.29
-155.71
-108.17
-58.88
-11.05
35.56
81.08
126.18
170.19
210.16
241.56
260.37
265.01
257.54
242.92
227.08
214.99
208.50
206.68
207.52
209.60
212.53
216.36
220.35
222.19
219.04
208.32
189.56
165.22
140.15
119.61
107.17
103.13
104.23
105.89
102.98
91.99
72.33
46.59
19.78
-2.28
-14.87
-16.62
-8.05
6.35
20.24
27.27
22.76
4.79
-25.35
-63.60
-105.53
-143.75
-174.59
-197.89
-217.19
-237.74
-263.12
-292.33
-319.39
-338.51
-341.91
-330.80
-312.67
-297.29
-290.95
-292.54
-294.23
-286.07
-264.67
-227.43
-180.96
-133.36
-89.38
-47.96
-3.75
48.78
128.99
208.22
281.60
339.34
374.51
385.56
376.55
355.05
328.81
302.97
275.86
248.82
218.79
184.03
145.34
105.49
67.41
32.32
-1.10
-38.14
-79.31
-125.89
-176.55
-227.68
-275.27
-316.90
-352.59
-384.80
-418.74
-456.73
-501.55
-553.54
-609.76
-663.85
-707.17
-731.14
-730.24
-704.81
-659.13
-601.71
-541.11
-483.11
-429.57
-379.38
-330.53
-282.05
-234.76
-189.82
-148.20
-109.49
-72.02
-33.66
7.17
50.90
96.60
142.59
187.11
228.91
267.58
303.50
337.58
371.19
406.12
444.46
487.99
536.97
588.79
637.49
674.60
691.31
681.25
642.72
579.76
501.56
420.59
349.54
298.09
270.24
263.20
268.38
274.40
270.98
252.09
217.06
169.80
116.74
64.74
19.72
-14.17
-35.43
-45.80
-50.24
-55.51
-67.65
-89.41
-119.10
-151.32
-179.13
-196.54
-200.04
-189.03
-165.42
-133.19
-97.70
-64.75
-39.15
-23.31
-16.75
-16.92
-20.67
-25.67
-30.68
-34.88
-36.95
-34.91
-27.23
-14.23
1.13
14.24
20.73
18.78
9.90
-1.72
-11.32
-15.56
-13.74
-7.57
-0.06
5.88
8.46
7.40
3.59
-1.52
-6.55
-10.62
-13.43
-15.09
-15.82
-15.68
-14.53
-12.15
-8.64
-4.48
-0.44
2.71
4.53
5.07
4.72
4.00
3.21
2.27
0.68
-2.16
-6.55
-12.22
-18.21
-23.36
-27.05
-29.65
-32.59
-37.66
-45.94
-56.98
-68.89
-79.22
-86.12
-89.12
-89.04
-87.05
-84.12
-80.93
-78.52
-78.80
-84.22
-96.50
-115.43
-138.69
-163.10
-186.49
-208.86
-231.98
-257.53
-285.26
-312.47
-335.14
-349.98
-355.83
-353.65
-345.24
-331.76
-313.24
-289.16
-259.52
-225.62
-189.67
-154.00
-120.05
-88.23
-58.13
-29.27
-1.42
25.49
51.74
78.18
105.93
135.75
167.23
198.43
226.40
248.48
263.62
272.94
278.83
283.28
286.70
287.91
285.45
278.89
269.18
257.76
245.35
231.70
216.74
202.08
191.60
189.91
199.44
218.11
239.27
254.28
256.42
243.80
219.66
190.26
161.86
138.55
121.76
111.08
105.45
103.90
105.64
109.63
114.22
117.11
115.77
108.30
94.39
75.88
56.52
40.78
32.11
31.50
36.93
44.28
49.13
48.70
42.87
33.86
24.81
18.01
13.90
11.11
7.58
1.92
-5.71
-13.69
-19.81
-22.38
-21.11
-17.21
-12.75
-9.79
-9.45
-11.62
-15.14
-18.38
-20.02
-19.58
-17.47
-14.71
-12.40
-11.18
-11.04
-11.43
-11.59
-10.91
-9.19
-6.67
-3.81
-1.11
1.03
2.29
2.36
0.89
-2.39
-7.52
-14.10
-21.22
-27.85
-33.32
-37.93
-42.89
-49.79
-59.46
-71.34
-83.44
-93.24
-98.80
-99.51
-96.15
-90.15
-82.93
-75.44
-68.23
-61.72
-56.35
-52.44
-49.87
-48.08
-46.23
-43.58
-39.54
-33.55
-24.84
-12.61
3.43
22.60
43.00
62.00
77.06
86.58
90.21
88.65
83.03
74.45
63.92
52.58
41.99
33.95
29.94
30.38
34.31
39.56
43.62
44.58
41.68
35.36
26.66
16.72
6.30
-4.01
-13.53
-21.24
-25.93
-26.72
-23.62
-17.70
-10.80
-4.99
-1.81
-1.96
-5.32
-11.20
-18.66
-26.71
-34.31
-40.43
-44.17
-45.08
-43.30
-39.71
-35.57
-32.14
-30.20
-29.95
-31.11
-33.24
-36.04
-39.35
-43.11
-47.11
-50.93
-54.11
-56.40
-57.93
-59.35
-61.50
-65.06
-70.13
-76.15
-82.09
-86.94
-90.26
-92.49
-94.83
-98.69
-105.06
-113.95
-124.28
-134.24
-141.91
-146.01
-146.28
-143.55
-139.42
-135.45
-132.50
-130.15
-126.39
-118.10
-102.08
-76.12
-39.71
5.68
56.66
108.41
155.51
193.37
219.81
235.71
244.66
251.33
259.19
268.65
276.99
279.94
274.54
261.51
244.32
227.24
213.07
202.34
194.09
187.36
182.35
180.36
183.28
190.30
197.43
198.85
189.79
168.52
136.60
97.56
56.16
18.83
-9.70
-27.20
-33.90
-31.70
-23.43
-12.40
-1.91
6.56
15.21
25.35
35.88
43.51
45.14
40.14
30.89
21.73
3.12
-25.79
-58.98
-87.80
-107.55
-118.77
-124.00
-122.18
-117.04
-111.16
-104.13
-96.22
-88.54
-82.21
-78.81
-76.90
-74.43
-70.44
-64.30
-54.22
-39.46
-20.36
1.90
25.68
49.05
69.05
82.18
86.81
85.17
81.49
80.15
83.64
91.29
99.76
104.24
100.48
87.09
66.01
40.43
13.14
-14.33
-41.15
-65.98
-86.96
-102.50
-111.75
-115.54
-116.54
-118.33
-124.05
-135.38
-151.93
-171.29
-189.56
-202.24
-205.92
-199.95
-187.12
-172.93
-163.27
-161.54
-167.07
-175.72
-182.15
-182.79
-177.35
-168.03
-157.59
-147.66
-138.49
-129.85
-121.99
-116.07
-113.54
-115.10
-120.34
-128.18
-137.34
-147.13
-157.30
-167.60
-177.60
-186.95
-195.85
-205.13
-215.66
-227.06
-236.94
-241.54
-237.15
-222.24
-198.35
-169.47
-139.97
-112.48
-86.69
-59.74
-28.03
10.86
56.99
108.15
160.76
210.80
254.34
287.81
308.42
314.87
308.12
291.47
269.81
248.06
229.81
216.92
209.79
208.06
210.99
217.18
224.34
229.68
230.87
227.26
220.21
212.51
207.17
206.22
210.35
219.01
230.87
243.91
255.24
261.41
259.24
247.12
225.99
199.04
170.12
141.94
115.03
88.22
60.21
31.03
2.48
-22.66
-42.00
-54.79
-62.10
-66.14
-69.20
-72.73
-77.09
-81.74
-85.60
-87.29
-85.43
-79.27
-69.28
-57.17
-45.07
-34.42
-24.90
-14.54
-1.11
16.08
34.91
50.80
58.72
55.96
43.74
26.78
10.89
0.12
-4.99
-6.91
-9.18
-14.12
-21.77
-30.64
-39.30
-47.62
-57.08
-69.83
-87.33
-109.74
-136.41
-166.89
-201.48
-240.29
-281.88
-322.19
-355.14
-374.86
-378.18
-366.18
-343.81
-317.77
-293.94
-275.47
-262.04
-250.52
-236.18
-214.55
-183.10
-142.23
-95.32
-47.52
-3.75
33.14
63.37
89.26
113.06
134.98
152.66
162.81
163.69
156.98
147.64
141.49
142.04
148.70
157.20
162.27
160.62
152.73
142.40
134.37
131.73
134.43
139.56
143.21
142.40
136.23
125.78
113.10
100.01
87.22
74.31
60.38
44.97
28.65
12.92
-0.44
-10.21
-16.34
-19.80
-21.85
-23.44
-24.77
-25.53
-25.31
-23.99
-21.71
-18.98
-16.76
-16.43
-19.70
-27.85
-40.78
-56.48
-71.29
-81.18
-83.60
-78.74
-69.47
-60.06
-54.08
-52.89
-55.44
-59.34
-62.46
-63.90
-63.91
-62.97
-61.00
-57.19
-50.70
-41.47
-30.54
-19.58
-9.96
-2.02
4.91
11.86
19.34
26.99
33.83
38.97
42.00
43.07
42.41
39.96
35.38
28.52
19.90
10.69
2.42
-3.84
-7.85
-10.22
-11.84
-13.41
-15.12
-16.77
-18.13
-19.11
-19.82
-20.31
-20.48
-20.11
-19.13
-17.79
-16.71
-16.62
-18.13
-21.48
-26.50
-32.78
-39.72
-46.59
-52.54
-56.65
-58.14
-56.56
-52.01
-45.11
-36.85
-28.29
-20.25
-13.17
-7.14
-2.07
2.13
5.45
7.79
9.05
9.25
8.53
7.17
5.45
3.69
2.26
1.51
1.75
3.02
5.04
7.22
8.93
9.71
9.48
8.43
6.89
5.06
2.91
0.27
-3.05
-7.08
-11.72
-16.78
-22.09
-27.47
-32.80
-37.90
-42.64
-46.94
-50.75
-54.01
-56.33
-56.88
-54.48
-47.98
-36.89
-21.73
-3.97
14.51
32.08
47.77
61.17
72.00
79.65
83.16
81.66
75.00
64.19
51.23
38.40
27.39
18.71
11.81
5.59
-0.77
-7.36
-13.44
-18.11
-20.91
-22.15
-22.74
-23.76
-25.97
-29.57
-34.28
-39.44
-44.45
-48.89
-52.50
-55.25
-57.41
-59.58
-62.55
-66.72
-71.35
-74.88
-75.53
-72.15
-64.77
-54.45
-42.67
-30.62
-18.94
-7.44
3.82
14.54
24.79
35.66
48.97
66.19
87.22
110.06
132.75
153.09
169.86
183.46
195.68
208.44
222.47
236.83
249.48
260.06
268.16
273.62
276.78
278.82
281.05
283.99
286.73
287.43
286.29
282.51
274.25
259.22
236.08
204.96
167.42
126.16
70.87
3.19
-66.09
-123.54
-161.76
-181.25
-187.25
-186.00
-182.82
-180.80
-178.25
-173.16
-164.70
-153.64
-141.56
-131.40
-125.67
-126.82
-136.36
-152.34
-171.58
-190.01
-202.53
-203.13
-186.96
-152.44
-102.86
-45.68
10.80
58.61
90.89
102.48
93.47
68.08
32.29
-9.11
-53.65
-100.13
-147.56
-193.33
-232.18
-256.52
-260.18
-241.83
-206.32
-162.61
-119.52
-82.29
-51.39
-23.77
4.74
35.49
66.14
92.12
109.86
119.42
124.32
129.13
133.17
133.23
124.55
104.27
73.76
38.88
7.90
-12.15
-18.65
-14.79
-7.47
-4.50
-9.39
-21.46
-36.64
-49.66
-57.01
-58.67
-57.86
-58.55
-63.51
-72.94
-84.42
-94.94
-102.10
-105.36
-106.41
-108.05
-112.17
-118.55
-124.49
-126.01
-119.42
-102.91
-77.67
-47.59
-17.84
7.21
25.39
36.96
43.72
47.58
49.35
48.45
44.10
37.13
31.14
31.58
43.09
66.39
97.02
127.08
148.95
158.84
157.82
150.07
139.74
128.79
117.03
104.21
91.80
82.87
80.23
84.15
91.30
96.01
93.28
81.50
63.30
44.18
29.99
24.32
27.10
34.64
41.31
41.91
33.83
18.03
-1.87
-21.60
-38.25
-51.07
-60.78
-68.07
-72.65
-73.58
-70.37
-64.10
-57.12
-52.13
-50.70
-52.55
-55.65
-57.58
-56.74
-52.88
-46.81
-39.75
-32.62
-25.85
-19.40
-13.04
-6.60
-0.22
5.76
10.76
14.22
15.85
15.81
14.71
13.43
12.76
13.11
14.40
16.19
17.97
19.36
20.26
20.88
21.57
22.68
24.45
26.95
29.88
32.55
33.91
32.92
29.02
22.68
15.50
9.88
8.13
11.45
19.33
29.63
39.37
45.91
47.81
45.05
38.54
29.43
18.52
6.38
-6.39
-18.86
-29.79
-38.01
-42.89
-44.51
-43.44
-40.38
-35.83
-29.98
-22.93
-14.87
-6.26
2.25
9.90
16.00
19.96
21.46
20.52
17.67
13.82
9.99
6.96
5.11
4.37
4.43
4.98
5.80
6.73
7.64
8.30
8.48
7.99
6.81
5.11
3.25
1.56
0.31
-0.52
-1.18
-2.08
-3.59
-5.83
-8.59
-11.38
-13.63
-14.95
-15.28
-14.91
-14.31
-13.97
-14.24
-15.26
-17.06
-19.56
-22.61
-25.89
-28.87
-30.81
-31.00
-29.05
-25.06
-19.68
-13.83
-8.33
-3.61
0.46
4.30
8.42
13.04
17.94
22.51
25.99
27.74
27.53
25.63
22.69
19.51
16.74
14.68
13.29
12.33
11.59
10.98
10.58
10.43
10.47
10.44
9.97
8.76
6.70
3.93
0.76
-2.42
-5.37
-7.96
-10.25
-12.33
-14.29
-16.09
-17.66
-18.88
-19.74
-20.31
-20.75
-21.19
-21.73
-22.38
-23.19
-24.24
-25.61
-27.29
-28.99
-30.15
-30.07
-28.21
-24.37
-18.90
-12.49
-5.97
-0.05
4.87
8.69
11.50
13.51
14.93
15.98
16.84
17.58
18.18
18.53
18.52
18.08
17.23
16.04
14.62
13.10
11.63
10.39
9.53
9.15
9.22
9.55
9.82
9.70
8.92
7.38
5.20
2.66
0.15
-1.98
-3.54
-4.61
-5.49
-6.61
-8.30
-10.65
-13.42
-16.16
-18.34
-19.56
-19.69
-18.92
-17.69
-16.61
-16.29
-17.20
-19.46
-22.68
-26.02
-28.34
-28.61
-26.35
-21.79
-15.89
-9.94
-5.01
-1.60
0.39
1.48
2.20
2.86
3.44
3.85
4.04
4.21
4.56
5.14
5.68
5.65
4.51
2.02
-1.49
-5.28
-8.43
-10.42
-11.30
-11.70
-12.41
-13.93
-16.17
-18.46
-19.92
-19.83
-18.00
-14.67
-10.40
-5.70
-0.91
3.86
8.64
13.46
18.25
22.87
27.08
30.60
33.12
34.43
34.42
33.16
30.87
27.86
24.37
20.60
16.63
12.55
8.49
4.64
1.14
-1.92
-4.54
-6.71
-8.28
-8.96
-8.44
-6.54
-3.41
0.47
4.46
7.99
10.73
12.68
13.97
14.81
15.32
15.59
15.65
15.61
15.55
15.54
15.59
15.62
15.51
15.19
14.67
14.08
13.62
13.46
13.59
13.85
13.90
13.48
12.44
10.93
9.27
7.81
6.76
6.11
5.64
5.08
4.26
3.20
2.04
0.96
0.11
-0.47
-0.81
-0.99
-1.09
-1.11
-1.07
-0.95
-0.82
-0.81
-1.14
-2.00
-3.47
-5.46
-7.73
-9.93
-11.85
-13.48
-15.05
-16.88
-19.21
-21.97
-24.72
-26.76
-27.40
-26.25
-23.33
-19.07
-14.13
-9.17
-4.66
-0.82
2.27
4.64
6.33
7.42
8.01
8.30
8.48
8.71
9.05
9.47
9.89
10.21
10.38
10.38
10.23
10.00
9.78
9.69
9.80
10.10
10.50
10.77
10.70
10.17
9.20
7.94
6.60
5.40
4.44
3.67
2.96
2.07
0.83
-0.87
-2.95
-5.26
-7.54
-9.60
-11.32
-12.69
-13.82
-14.82
-15.78
-16.80
-17.96
-19.35
-21.08
-23.15
-25.35
-27.26
-28.31
-27.91
-25.75
-21.89
-16.81
-11.28
-6.03
-1.62
1.79
4.32
6.25
7.85
9.25
10.41
11.23
11.63
11.57
11.16
10.56
9.97
9.60
9.61
10.01
10.69
11.42
11.99
12.27
12.26
12.08
11.87
11.68
11.42
10.94
10.12
8.97
7.65
6.39
5.38
4.67
4.16
3.63
2.89
1.85
0.58
-0.75
-1.94
-2.89
-3.65
-4.41
-5.40
-6.74
-8.37
-10.07
-11.58
-12.76
-13.64
-14.42
-15.37
-16.70
-18.49
-20.66
-22.98
-25.11
-26.68
-27.24
-26.46
-24.15
-20.39
-15.56
-10.21
-5.04
-0.64
2.65
4.80
6.07
6.90
7.71
8.71
9.88
11.00
11.82
12.19
12.16
11.89
11.55
11.32
11.24
11.30
11.49
11.79
12.17
12.58
12.95
13.21
13.32
13.25
13.00
12.56
11.91
11.04
9.96
8.73
7.44
6.18
5.00
3.91
2.82
1.68
0.43
-0.87
-2.10
-3.12
-3.87
-4.38
-4.84
-5.47
-6.42
-7.71
-9.27
-10.91
-12.47
-13.88
-15.14
-16.31
-17.56
-19.06
-20.97
-23.31
-25.84
-28.08
-29.35
-29.01
-26.71
-22.52
-16.93
-10.69
-4.56
0.83
5.14
8.26
10.30
11.52
12.23
12.68
13.04
13.33
13.46
13.35
12.96
12.40
11.88
11.55
11.49
11.61
11.74
11.75
11.64
11.47
11.35
11.27
11.13
10.72
9.90
8.68
7.22
5.78
4.55
3.58
2.76
1.96
1.08
0.12
-0.89
-1.92
-3.04
-4.35
-5.86
-7.53
-9.19
-10.68
-11.93
-12.97
-13.98
-15.14
-16.63
-18.52
-20.82
-23.40
-25.97
-28.11
-29.25
-28.93
-26.91
-23.31
-18.59
-13.37
-8.23
-3.56
0.45
3.80
6.52
8.63
10.18
11.20
11.80
12.10
12.19
12.11
11.87
11.48
11.05
10.69
10.53
10.64
11.01
11.57
12.21
12.81
13.27
13.46
13.29
12.71
11.81
10.74
9.73
8.95
8.47
8.23
8.04
7.68
7.00
5.98
4.75
3.51
2.47
1.72
1.19
0.68
-0.00
-1.01
-2.32
-3.84
-5.42
-7.00
-8.56
-10.15
-11.79
-13.45
-15.12
-16.84
-18.73
-20.96
-23.66
-26.75
-29.92
-32.68
-34.43
-34.67
-33.13
-29.87
-25.22
-19.76
-14.15
-8.97
-4.60
-1.21
1.26
2.97
4.12
4.90
5.42
5.79
6.07
6.24
6.20
5.79
4.87
3.39
1.52
-0.46
-2.18
-3.45
-4.28
-4.91
-5.68
-6.82
-8.38
-10.22
-12.13
-13.93
-15.57
-17.03
-18.27
-19.13
-19.34
-18.62
-16.73
-13.58
-9.25
-3.94
2.14
8.68
15.33
21.67
27.24
31.65
34.67
36.32
36.81
36.49
35.59
34.22
32.33
29.82
26.71
23.19
19.63
16.34
13.53
11.13
8.91
6.56
3.84
0.66
-2.94
-6.78
-10.65
-14.20
-17.02
-18.64
-18.64
-16.85
-13.40
-8.78
-3.69
1.12
5.12
8.04
9.93
11.00
11.59
11.92
12.15
12.33
12.45
12.54
12.59
12.63
12.68
12.68
12.58
12.35
12.05
11.78
11.63
11.63
11.75
11.88
11.90
11.75
11.42
10.93
10.30
9.56
8.71
7.77
6.74
5.63
4.39
3.03
1.57
0.05
-1.42
-2.78
-4.01
-5.19
-6.41
-7.73
-9.16
-10.62
-12.00
-13.19
-14.17
-15.03
-15.97
-17.28
-19.15
-21.60
-24.30
-26.64
-27.85
-27.30
-24.74
-20.45
-15.11
-9.55
-4.45
-0.15
3.36
6.27
8.75
10.89
12.68
14.10
15.17
15.94
16.44
16.66
16.56
16.12
15.44
14.67
14.00
13.51
13.22
13.04
12.87
12.66
12.40
12.08
11.68
11.13
10.41
9.54
8.66
7.96
7.57
7.50
7.63
7.74
7.60
7.08
6.20
5.05
3.77
2.50
1.36
0.40
-0.38
-1.07
-1.85
-2.90
-4.36
-6.23
-8.36
-10.49
-12.39
-13.94
-15.16
-16.24
-17.37
-18.72
-20.35
-22.24
-24.30
-26.38
-28.24
-29.47
-29.57
-28.09
-24.84
-20.03
-14.33
-8.56
-3.49
0.48
3.38
5.54
7.33
9.00
10.57
11.92
12.89
13.42
13.54
13.40
13.11
12.81
12.55
12.36
12.20
12.04
11.87
11.76
11.80
12.05
12.51
13.01
13.33
13.25
12.70
11.76
10.65
9.56
8.59
7.68
6.71
5.59
4.33
3.05
1.87
0.85
-0.03
-0.85
-1.67
-2.51
-3.35
-4.17
-5.03
-6.02
-7.21
-8.54
-9.88
-10.99
-11.78
-12.26
-12.67
-13.28
-14.39
-16.11
-18.36
-20.84
-23.09
-24.56
-24.76
-23.39
-20.47
-16.30
-11.43
-6.42
-1.75
2.34
5.76
8.54
10.67
12.18
13.07
13.48
13.57
13.47
13.22
12.76
12.00
10.97
9.82
8.83
8.20
8.05
8.26
8.65
9.03
9.28
9.38
9.32
9.08
8.61
7.90
7.03
6.11
5.25
4.45
3.65
2.72
1.59
0.28
-1.06
-2.24
-3.14
-3.83
-4.54
-5.56
-7.11
-9.13
-11.33
-13.25
-14.50
-14.95
-14.82
-14.61
-14.86
-15.90
-17.80
-20.26
-22.81
-24.90
-26.05
-25.91
-24.29
-21.23
-16.99
-12.04
-6.94
-2.23
1.71
4.74
6.94
8.51
9.72
10.74
11.62
12.33
12.80
12.97
12.87
12.62
12.35
12.15
12.05
12.00
11.95
11.91
11.93
12.09
12.37
12.65
12.73
12.43
11.71
10.70
9.62
8.65
7.83
7.06
6.14
4.97
3.54
1.99
0.49
-0.80
-1.83
-2.62
-3.25
-3.81
-4.36
-5.02
-5.87
-6.96
-8.26
-9.62
-10.86
-11.82
-12.46
-12.92
-13.46
-14.36
-15.79
-17.79
-20.19
-22.72
-25.01
-26.64
-27.16
-26.24
-23.73
-19.73
-14.72
-9.35
-4.29
0.03
3.47
6.21
8.50
10.51
12.26
13.64
14.55
14.99
15.09
15.03
14.91
14.76
14.48
14.00
13.33
12.61
12.06
11.86
12.04
12.48
12.91
13.07
12.75
11.96
10.84
9.66
8.65
7.96
7.57
7.31
6.95
6.29
5.28
4.00
2.63
1.35
0.28
-0.60
-1.41
-2.29
-3.37
-4.64
-6.06
-7.54
-8.99
-10.40
-11.77
-13.16
-14.59
-16.11
-17.72
-19.44
-21.31
-23.26
-25.04
-26.25
-26.32
-24.82
-21.62
-17.05
-11.80
-6.73
-2.47
0.75
3.10
4.98
6.73
8.48
10.14
11.52
12.45
12.93
13.09
13.09
13.05
13.03
13.05
13.12
13.23
13.39
13.55
13.60
13.47
13.14
12.68
12.19
11.75
11.34
10.87
10.21
9.24
7.94
6.39
4.72
3.07
1.55
0.23
-0.89
-1.83
-2.69
-3.57
-4.59
-5.84
-7.36
-9.08
-10.87
-12.54
-13.95
-15.05
-15.96
-16.93
-18.23
-20.03
-22.30
-24.75
-26.88
-28.07
-27.79
-25.80
-22.21
-17.51
-12.42
-7.60
-3.51
-0.24
2.39
4.70
6.94
9.18
11.29
13.09
14.47
15.42
16.06
16.50
16.84
17.07
17.16
17.07
16.86
16.63
16.50
16.49
16.50
16.42
16.15
15.67
15.11
14.62
14.26
13.98
13.59
12.92
11.91
10.65
9.34
8.18
7.28
6.57
5.90
5.11
4.15
3.07
2.03
1.21
0.67
0.34
-0.00
-0.63
-1.77
-3.45
-5.53
-7.69
-9.67
-11.33
-12.77
-14.19
-15.80
-17.65
-19.70
-21.84
-24.01
-26.16
-28.23
-29.94
-30.80
-30.27
-27.98
-23.95
-18.68
-12.94
-7.48
-2.76
1.09
4.23
6.86
9.09
10.90
12.24
13.12
13.69
14.15
14.64
15.19
15.72
16.04
16.04
15.70
15.11
14.47
14.00
13.86
14.10
14.58
15.06
15.22
14.85
13.93
12.62
11.25
10.07
9.16
8.39
7.52
6.36
4.90
3.32
1.84
0.58
-0.49
-1.52
-2.62
-3.81
-4.92
-5.82
-6.44
-6.90
-7.38
-8.04
-8.90
-9.85
-10.71
-11.38
-11.94
-12.59
-13.67
-15.43
-17.93
-20.99
-24.14
-26.70
-27.96
-27.44
-25.02
-21.02
-16.09
-10.93
-6.12
-1.97
1.45
4.17
6.20
7.56
8.30
8.59
8.69
8.83
9.14
9.54
9.84
9.90
9.74
9.52
9.49
9.84
10.57
11.53
12.44
13.02
13.09
12.66
11.83
10.79
9.72
8.74
7.87
7.02
6.12
5.12
4.02
2.88
1.76
0.66
-0.50
-1.79
-3.24
-4.83
-6.42
-7.91
-9.24
-10.47
-11.68
-12.94
-14.23
-15.50
-16.72
-18.02
-19.55
-21.43
-23.46
-25.18
-25.92
-25.16
-22.75
-19.00
-14.50
-9.87
-5.53
-1.64
1.81
4.84
7.46
9.65
11.43
12.86
14.00
14.87
15.37
15.42
15.00
14.25
13.41
12.79
12.56
12.74
13.18
13.63
13.85
13.68
13.13
12.30
11.38
10.49
9.67
8.85
7.91
6.80
5.52
4.15
2.79
1.44
0.03
-1.54
-3.32
-5.25
-7.15
-8.80
-10.07
-11.00
-11.82
-12.86
-14.40
-16.55
-19.21
-22.10
-24.90
-27.40
-29.58
-31.54
-33.47
-35.55
-37.88
-40.57
-43.71
-47.38
-51.49
-55.70
-59.33
-61.46
-61.21
-58.02
-51.88
-43.30
-33.18
-22.44
-11.80
-1.67
7.81
16.63
24.77
32.15
38.60
43.92
47.94
50.56
51.79
51.76
50.71
49.00
46.97
44.92
43.05
41.42
40.05
38.90
37.88
36.85
35.64
34.11
32.20
30.01
27.74
25.61
23.73
22.06
20.47
18.80
16.96
14.95
12.83
10.65
8.43
6.22
4.06
2.06
0.35
-1.00
-2.07
-3.07
-4.26
-5.82
-7.74
-9.86
-11.88
-13.54
-14.70
-15.38
-15.77
-16.09
-16.64
-17.65
-19.25
-21.40
-23.80
-25.91
-27.05
-26.62
-24.35
-20.45
-15.49
-10.29
-5.49
-1.51
1.57
3.92
5.76
7.29
8.59
9.70
10.66
11.49
12.25
12.95
13.56
13.99
14.14
13.97
13.51
12.92
12.40
12.15
12.19
12.38
12.45
12.14
11.32
10.08
8.67
7.34
6.25
5.39
4.67
3.95
3.20
2.44
1.73
1.06
0.39
-0.40
-1.39
-2.65
-4.19
-5.99
-8.02
-10.18
-12.34
-14.32
-15.95
-17.19
-18.11
-18.97
-20.12
-21.80
-24.04
-26.52
-28.63
-29.67
-29.06
-26.55
-22.34
-16.97
-11.16
-5.54
-0.61
3.45
6.62
9.02
10.84
12.24
13.36
14.28
15.02
15.58
15.93
16.06
16.02
15.87
15.71
15.62
15.64
15.77
15.94
16.04
16.00
15.74
15.28
14.64
13.88
13.02
12.08
11.13
10.22
9.40
8.66
7.85
6.79
5.31
3.38
1.13
-1.16
-3.18
-4.72
-5.68
-6.18
-6.43
-6.70
-7.22
-8.16
-9.57
-11.38
-13.38
-15.31
-16.94
-18.19
-19.19
-20.22
-21.60
-23.49
-25.78
-28.07
-29.72
-30.11
-28.81
-25.71
-21.12
-15.57
-9.74
-4.21
0.64
4.63
7.76
10.14
11.91
13.18
14.07
14.66
15.07
15.38
15.65
15.88
16.07
16.18
16.20
16.12
15.90
15.55
15.07
14.52
13.93
13.34
12.76
12.11
11.31
10.33
9.24
8.17
7.29
6.68
6.24
5.81
5.17
4.24
3.07
1.79
0.57
-0.46
-1.26
-1.82
-2.19
-2.46
-2.75
-3.24
-4.03
-5.20
-6.69
-8.30
-9.87
-11.27
-12.55
-13.89
-15.52
-17.66
-20.32
-23.28
-26.08
-28.09
-28.71
-27.58
-24.69
-20.42
-15.37
-10.20
-5.41
-1.25
2.21
5.03
7.26
8.89
9.92
10.38
10.42
10.32
10.33
10.63
11.24
12.01
12.76
13.37
13.77
14.00
14.11
14.09
13.95
13.64
13.17
12.59
11.97
11.33
10.65
9.87
8.91
7.77
6.48
5.12
3.78
2.53
1.41
0.45
-0.41
-1.31
-2.46
-4.00
-6.00
-8.36
-10.86
-13.23
-15.31
-17.08
-18.65
-20.18
-21.82
-23.68
-25.73
-27.83
-29.64
-30.70
-30.52
-28.75
-25.37
-20.70
-15.34
-9.89
-4.83
-0.37
3.49
6.82
9.68
12.08
14.01
15.48
16.56
17.31
17.76
17.88
17.70
17.27
16.74
16.29
16.04
16.02
16.16
16.29
16.25
15.97
15.46
14.79
14.07
13.37
12.73
12.12
11.57
11.05
10.55
10.03
9.40
8.60
7.58
6.39
5.11
3.84
2.64
1.52
0.43
-0.69
-1.87
-3.10
-4.41
-5.80
-7.28
-8.85
-10.45
-11.98
-13.36
-14.54
-15.62
-16.77
-18.24
-20.27
-22.94
-26.07
-29.21
-31.68
-32.76
-31.89
-28.96
-24.30
-18.63
-12.77
-7.38
-2.83
0.88
3.92
6.54
8.91
11.06
12.92
14.37
15.32
15.77
15.80
15.57
15.25
14.99
14.81
14.64
14.42
14.15
13.93
13.88
14.06
14.38
14.61
14.54
14.02
13.14
12.11
11.20
10.59
10.29
10.19
10.12
9.90
9.46
8.76
7.83
6.72
5.45
4.05
2.53
0.90
-0.81
-2.54
-4.30
-6.07
-7.86
-9.62
-11.26
-12.66
-13.71
-14.45
-15.01
-15.64
-16.57
-17.95
-19.78
-21.89
-24.00
-25.70
-26.59
-26.27
-24.50
-21.31
-17.03
-12.18
-7.35
-2.99
0.69
3.68
6.15
8.22
9.97
11.38
12.41
13.09
13.48
13.70
13.86
14.05
14.26
14.43
14.52
14.51
14.48
14.55
14.82
15.28
15.76
16.00
15.77
14.98
13.73
12.29
10.95
9.88
9.06
8.35
7.54
6.46
5.07
3.41
1.64
-0.13
-1.79
-3.29
-4.65
-5.94
-7.21
-8.52
-9.89
-11.32
-12.71
-13.96
-14.94
-15.55
-15.78
-15.78
-15.87
-16.43
-17.83
-20.22
-23.37
-26.71
-29.42
-30.69
-30.01
-27.34
-23.07
-17.89
-12.54
-7.54
-3.17
0.50
3.51
5.91
7.78
9.23
10.41
11.44
12.35
13.04
13.38
13.27
12.77
12.13
11.66
11.61
12.07
12.92
13.95
14.88
15.55
15.87
15.87
15.61
15.18
14.65
14.10
13.59
13.13
12.70
12.22
11.56
10.67
9.51
8.19
6.88
5.80
5.06
4.64
4.39
4.06
3.46
2.51
1.28
-0.11
-1.53
-2.93
-4.36
-5.88
-7.55
-9.32
-11.11
-12.83
-14.39
-15.82
-17.17
-18.61
-20.27
-22.24
-24.46
-26.71
-28.53
-29.38
-28.79
-26.50
-22.61
-17.56
-11.97
-6.47
-1.52
2.61
5.88
8.36
10.16
11.42
12.27
12.84
13.27
13.65
14.01
14.29
14.34
14.03
13.29
12.21
11.02
9.99
9.36
9.22
9.45
9.84
10.13
10.19
9.99
9.61
9.15
8.67
8.22
7.82
7.46
7.09
6.55
5.66
4.27
2.39
0.27
-1.67
-3.05
-3.70
-3.76
-3.62
-3.67
-4.19
-5.16
-6.42
-7.74
-8.95
-10.00
-10.94
-11.88
-12.95
-14.35
-16.30
-18.92
-22.12
-25.45
-28.19
-29.53
-28.88
-26.10
-21.55
-15.96
-10.17
-4.84
-0.37
3.15
5.79
7.70
9.06
9.96
10.50
10.75
10.73
10.44
9.89
9.10
8.13
7.06
5.98
5.01
4.24
3.76
3.58
3.66
3.84
3.93
3.83
3.57
3.40
3.64
4.53
6.08
7.95
9.58
10.42
10.15
8.80
6.73
4.44
2.33
0.51
-1.20
-3.17
-5.72
-8.95
-12.68
-16.60
-20.35
-23.65
-26.48
-29.02
-31.49
-34.07
-36.80
-39.58
-42.25
-44.54
-46.18
-47.07
-47.31
-47.03
-46.26
-44.80
-42.18
-37.69
-30.48
-19.80
-5.50
11.91
31.48
52.15
72.78
92.20
109.07
122.43
131.71
136.74
138.02
137.06
135.95
136.26
137.97
139.16
137.61
131.91
121.76
107.96
91.84
74.48
55.96
35.45
11.59
-17.20
-47.74
-73.89
-91.09
-99.27
-101.50
-100.81
-98.73
-98.19
-99.02
-101.54
-107.65
-120.29
-141.77
-172.45
-210.51
-247.93
-277.09
-291.49
-288.44
-270.43
-244.13
-217.49
-196.42
-182.93
-175.12
-169.53
-162.27
-151.10
-135.95
-118.55
-101.24
-85.91
-73.32
-62.75
-52.48
-39.87
-22.89
-1.41
22.39
44.99
63.30
76.26
85.29
93.15
102.85
116.33
133.95
154.51
175.96
195.80
211.55
221.28
224.00
220.74
214.97
212.39
219.70
242.23
281.33
332.68
386.71
431.17
455.27
453.59
427.70
384.87
334.55
284.29
237.50
193.84
151.10
106.99
59.80
8.11
-49.12
-111.44
-175.42
-234.25
-279.49
-304.68
-308.24
-294.28
-270.67
-245.32
-223.67
-207.85
-197.73
-192.50
-191.37
-193.21
-195.83
-196.21
-191.56
-181.78
-170.17
-162.36
-163.11
-174.00
-191.85
-210.03
-220.68
-217.17
-197.37
-163.69
-121.44
-75.26
-27.46
21.78
72.61
124.03
174.36
220.70
261.04
294.74
323.05
346.96
365.43
374.77
370.34
349.72
311.86
257.75
189.79
113.57
37.45
-29.26
-79.33
-118.12
-148.86
-176.32
-198.78
-218.12
-232.45
-238.70
-234.85
-223.92
-212.68
-206.25
-206.52
-210.81
-214.97
-215.00
-208.05
-194.95
-178.70
-160.90
-138.68
-107.69
-65.04
-13.12
41.24
91.90
132.24
157.79
169.16
173.28
179.73
196.73
227.61
270.80
324.83
383.60
437.51
476.63
495.20
493.28
476.40
452.94
403.35
324.49
227.20
128.63
41.14
-30.31
-84.95
-123.59
-148.92
-165.09
-172.23
-171.30
-164.10
-152.73
-139.19
-125.63
-114.01
-108.03
-110.09
-116.69
-123.70
-128.13
-128.68
-125.09
-117.86
-108.18
-97.42
-86.40
-73.58
-58.70
-43.26
-29.18
-17.35
-6.90
4.03
17.77
35.99
59.22
84.80
107.36
121.38
123.68
113.73
92.90
64.68
34.15
7.32
-10.39
-15.78
-8.37
9.23
34.00
58.05
73.17
76.50
72.06
66.96
66.04
67.56
69.84
70.76
68.09
60.59
47.72
28.32
4.67
-22.98
-54.47
-88.92
-124.85
-159.98
-190.60
-212.91
-225.01
-228.08
-226.11
-222.78
-218.75
-211.62
-197.79
-175.09
-145.54
-115.79
-94.49
-88.61
-99.52
-122.30
-148.53
-170.08
-181.73
-181.91
-171.78
-153.14
-127.08
-93.16
-50.39
0.89
57.42
113.12
160.93
195.37
214.91
222.46
224.05
225.88
231.57
241.14
252.34
263.03
273.17
285.10
301.86
324.78
351.72
377.15
394.09
396.90
383.60
356.31
320.08
280.54
241.50
204.01
166.71
127.41
84.70
38.81
-8.76
-56.09
-101.71
-144.82
-184.77
-220.70
-251.56
-276.73
-296.61
-312.60
-326.21
-337.73
-345.37
-345.77
-335.52
-313.07
-279.62
-238.63
-194.16
-149.13
-104.73
-61.04
-18.36
21.75
56.80
84.70
104.97
118.99
128.76
135.04
136.00
127.52
105.21
67.35
16.81
-38.88
-90.04
-128.35
-150.04
-156.96
-155.15
-151.75
-151.95
-157.38
-166.46
-176.06
-183.34
-186.83
-186.42
-182.95
-177.83
-173.15
-171.77
-177.02
-191.72
-216.81
-250.21
-286.69
-318.90
-339.32
-342.22
-325.31
-290.24
-242.15
-188.13
-135.17
-88.26
-48.94
-15.38
16.52
51.49
93.38
144.18
203.55
268.45
333.06
389.33
428.66
444.32
433.69
399.11
346.64
283.55
215.88
147.61
81.63
21.50
-27.70
-60.30
-72.49
-64.54
-41.55
-12.04
15.00
32.86
38.76
33.87
22.20
8.80
-1.71
-6.14
-3.25
6.59
22.06
41.62
63.74
86.73
108.63
127.32
141.03
149.00
151.86
151.32
149.54
148.07
147.18
145.61
140.94
130.15
110.43
79.92
38.44
-12.00
-66.86
-119.75
-163.71
-192.98
-204.39
-197.89
-176.48
-145.37
-111.03
-79.75
-56.19
-42.37
-37.32
-37.91
-40.04
-40.22
-36.61
-29.31
-19.70
-9.76
-1.60
2.61
1.36
-4.94
-13.61
-19.99
-19.98
-11.52
3.86
20.95
31.84
28.44
5.58
-38.24
-99.72
-173.09
-248.91
-315.62
-362.02
-381.29
-373.21
-342.47
-297.74
-247.05
-198.21
-154.60
-115.32
-76.97
-38.00
-0.37
32.53
54.43
59.83
41.75
-2.03
-66.98
-142.25
-216.01
-279.74
-328.19
-363.98
-367.18
-328.69
-253.13
-155.78
-50.50
54.08
144.35
222.74
288.25
340.26
377.21
402.01
415.71
421.90
422.69
409.05
377.96
330.96
276.90
223.77
177.47
140.76
114.60
97.57
86.64
82.16
80.84
79.97
75.66
66.40
54.47
45.54
44.40
51.76
65.46
77.22
80.54
72.31
55.29
36.43
23.05
18.57
21.56
28.96
37.20
45.01
52.20
58.90
65.01
70.86
77.34
85.54
96.20
107.56
116.04
117.48
109.44
92.45
70.04
47.45
29.85
21.14
22.85
33.73
49.71
64.92
73.60
72.24
61.10
44.07
26.83
14.48
9.95
13.80
25.35
43.68
67.71
95.64
124.59
151.15
172.87
189.20
201.19
210.04
215.55
215.83
208.46
192.28
168.66
140.84
111.97
83.35
53.74
20.33
-19.16
-64.77
-113.89
-162.02
-204.39
-237.30
-258.84
-268.78
-268.27
-259.40
-244.86
-227.79
-211.50
-199.13
-192.90
-193.30
-198.59
-205.23
-209.06
-206.92
-197.80
-183.01
-165.45
-148.49
-134.97
-126.76
-124.19
-125.94
-129.21
-130.51
-127.12
-118.66
-107.53
-98.05
-94.34
-97.99
-107.17
-117.52
-124.46
-125.26
-119.88
-110.48
-100.29
-92.87
-92.14
-102.15
-126.06
-164.08
-211.68
-259.40
-295.29
-308.99
-295.39
-256.08
-198.08
-130.90
-63.60
-3.15
45.96
81.29
102.28
110.50
109.66
104.91
101.43
102.83
109.98
121.14
133.02
142.26
147.00
147.44
145.57
144.07
145.07
149.26
155.59
161.79
165.07
163.24
155.50
142.85
127.90
113.97
103.82
98.46
96.88
96.68
95.48
92.08
86.82
80.89
75.10
69.20
62.07
52.77
41.47
29.58
18.99
11.04
5.86
2.51
-0.22
-2.98
-5.55
-7.04
-6.51
-3.63
1.02
6.09
9.99
11.51
10.42
7.57
4.60
3.29
4.75
8.95
14.77
20.44
24.25
25.15
22.97
18.34
12.43
6.54
1.91
-0.61
-0.69
1.35
4.63
8.04
10.56
11.64
11.29
9.95
8.13
6.17
4.10
1.74
-1.08
-4.36
-7.89
-11.32
-14.31
-16.71
-18.54
-19.95
-21.15
-22.30
-23.42
-24.44
-25.34
-26.34
-28.02
-31.12
-36.23
-43.44
-52.10
-61.08
-69.21
-75.93
-81.53
-87.07
-93.74
-102.23
-112.28
-122.85
-132.61
-140.63
-146.80
-151.78
-156.60
-161.97
-168.02
-174.33
-180.22
-185.11
-188.53
-189.89
-188.16
-182.10
-170.79
-154.35
-134.23
-112.91
-92.91
-75.69
-61.16
-47.72
-33.13
-15.59
5.34
28.55
51.87
73.17
91.62
108.30
125.80
146.76
172.19
200.47
227.80
249.92
264.15
270.52
271.24
269.17
266.08
262.12
256.56
249.12
240.87
233.88
229.90
228.90
228.79
226.22
218.44
204.79
187.11
168.66
152.27
138.72
126.26
111.78
92.58
68.03
39.95
11.94
-12.04
-28.47
-34.43
-27.32
-4.84
34.22
88.84
155.09
226.65
296.60
359.25
411.32
451.74
480.42
496.95
500.35
489.91
466.38
432.53
392.36
349.51
306.06
262.59
219.40
178.02
141.52
113.22
94.67
84.07
76.51
66.04
48.41
22.86
-8.04
-40.18
-70.30
-97.21
-121.56
-144.52
-166.58
-187.18
-205.19
-219.90
-231.57
-241.39
-250.98
-261.43
-272.99
-285.01
-296.37
-306.22
-314.82
-323.50
-334.22
-348.73
-367.58
-389.83
-413.24
-435.01
-452.28
-462.70
-465.05
-459.57
-448.69
-437.14
-431.11
-436.30
-455.82
-488.86
-530.99
-575.64
-616.01
-646.38
-662.35
-660.72
-639.55
-598.81
-541.21
-472.07
-398.22
-325.97
-259.30
-198.94
-143.53
-90.99
-39.91
9.90
58.07
104.36
149.39
194.19
239.91
286.82
334.26
380.91
425.99
470.29
515.97
565.05
616.86
666.82
706.91
728.77
727.23
702.47
659.37
604.84
544.90
483.46
422.98
365.80
314.76
272.07
237.49
207.57
176.91
141.09
99.09
53.47
7.67
-37.00
-82.73
-134.03
-194.75
-264.69
-337.65
-402.92
-448.68
-466.76
-454.52
-415.21
-357.31
-293.10
-235.95
-196.64
-179.67
-181.03
-190.74
-196.24
-187.64
-162.76
-128.73
-97.75
-79.76
-76.45
-79.48
-76.90
-57.92
-17.40
41.77
109.59
173.32
222.37
251.53
262.20
257.17
240.30
215.51
192.75
181.95
186.57
201.14
209.68
212.92
214.09
213.39
211.50
204.75
188.38
159.46
118.83
71.13
24.06
-17.34
-49.91
-71.67
-82.23
-82.91
-76.27
-65.00
-51.10
-35.16
-19.63
-7.55
-1.74
-4.97
-19.46
-46.11
-83.86
-129.72
-178.96
-227.55
-271.40
-305.48
-325.70
-330.57
-322.34
-306.64
-290.59
-279.74
-276.72
-279.94
-283.55
-281.87
-272.15
-254.92
-232.37
-206.32
-177.06
-144.17
-107.39
-66.00
-21.78
21.18
58.73
89.19
114.16
138.08
166.32
203.62
254.50
318.17
387.56
451.33
498.21
520.68
517.54
493.15
443.32
374.54
301.73
239.37
192.47
158.18
128.61
99.63
69.19
35.38
1.05
-31.27
-59.14
-79.72
-89.91
-87.91
-74.63
-54.75
-35.10
-20.71
-15.68
-22.37
-40.42
-66.02
-92.82
-113.53
-122.70
-118.34
-101.76
-79.05
-59.51
-52.53
-64.15
-94.87
-139.35
-188.29
-231.25
-259.18
-267.89
-258.96
-238.03
-211.53
-183.96
-156.89
-130.14
-103.82
-79.41
-60.00
-48.13
-43.57
-42.20
-37.42
-22.88
4.98
46.01
96.74
151.52
203.84
247.56
277.98
292.66
291.90
278.74
258.02
233.97
208.17
179.17
144.25
101.50
51.17
-4.79
-62.85
-117.92
-164.50
-197.73
-214.40
-214.05
-199.64
-178.53
-162.08
-160.55
-177.88
-210.25
-247.87
-279.57
-297.07
-296.81
-281.01
-256.63
-229.14
-198.99
-163.04
-118.01
-63.83
-3.82
58.77
121.57
182.79
229.44
247.97
233.36
194.24
144.38
92.47
42.17
3.33
-28.84
-55.91
-74.73
-80.94
-71.87
-47.59
-18.96
8.16
30.58
46.09
56.13
64.45
74.63
87.94
102.46
114.46
122.11
124.75
122.04
116.26
111.08
109.87
114.18
123.22
134.64
147.17
159.88
171.77
183.40
196.22
212.04
232.05
256.00
282.02
307.16
326.83
335.66
330.13
309.68
277.24
237.92
197.05
159.10
126.56
99.05
74.23
49.88
24.71
-0.79
-25.51
-48.42
-67.34
-80.10
-85.82
-85.31
-80.24
-73.40
-66.89
-63.23
-65.00
-71.65
-81.42
-93.12
-107.00
-123.15
-140.99
-156.60
-165.49
-163.61
-144.90
-104.92
-43.77
32.92
117.07
199.70
275.26
339.41
371.25
357.60
303.31
230.35
160.93
114.80
86.66
69.95
58.96
48.38
34.86
16.21
-10.57
-50.66
-105.64
-172.05
-239.85
-298.39
-340.73
-361.88
-362.39
-347.70
-328.56
-314.06
-308.88
-311.84
-319.36
-328.37
-334.51
-336.66
-320.53
-284.34
-238.05
-197.14
-171.04
-158.20
-159.37
-161.93
-156.40
-138.79
-112.54
-83.49
-51.58
-20.21
6.12
22.97
30.35
31.93
34.41
42.23
55.98
72.83
86.07
88.36
74.06
43.07
0.56
-45.39
-87.55
-121.17
-140.50
-141.28
-121.57
-84.45
-36.70
14.55
63.13
105.14
137.89
164.59
189.53
215.70
241.98
265.26
285.13
302.48
318.33
329.84
337.48
342.74
348.28
355.54
346.80
311.17
248.98
191.78
147.20
117.37
97.14
87.99
90.84
103.96
125.29
149.92
170.89
177.73
165.71
134.42
87.10
27.72
-38.76
-104.06
-159.86
-199.86
-223.90
-232.67
-229.03
-217.14
-202.54
-189.92
-180.42
-173.08
-166.21
-160.21
-154.42
-148.28
-141.29
-133.83
-126.47
-118.92
-110.74
-101.67
-92.75
-84.41
-76.90
-70.16
-64.28
-59.23
-54.60
-50.05
-45.49
-41.44
-38.22
-35.99
-34.56
-33.63
-32.78
-31.54
-29.52
-26.46
-22.28
-17.15
-11.41
-5.61
-0.29
4.14
7.53
10.03
11.98
13.75
15.57
17.48
19.37
21.03
22.28
22.96
22.99
22.29
20.93
19.10
17.18
15.59
14.68
14.57
15.12
15.99
16.79
17.24
17.34
17.21
17.08
17.01
16.92
16.59
15.82
14.55
12.90
11.15
9.60
8.46
7.77
7.38
6.98
6.24
4.98
3.20
1.17
-0.70
-1.89
-2.00
-0.76
1.80
5.34
9.33
13.33
17.44
22.53
30.23
42.36
60.07
83.09
109.52
136.29
160.05
178.27
189.62
194.06
192.33
185.52
174.56
160.05
142.12
120.57
95.19
66.25
34.94
3.49
-25.18
-48.30
-64.10
-72.41
-74.66
-73.32
-71.03
-69.73
-70.16
-71.80
-73.21
-72.77
-69.43
-63.26
-55.33
-47.09
-39.62
-33.23
-27.76
-22.88
-18.18
-13.02
-6.44
2.45
13.58
25.20
33.96
36.05
28.89
12.33
-11.40
-38.87
-67.21
-95.05
-122.40
-149.61
-176.35
-201.19
-222.13
-237.32
-245.49
-245.91
-238.28
-222.91
-201.35
-176.51
-152.22
-131.85
-116.85
-105.81
-95.15
-80.97
-61.32
-37.53
-13.75
4.95
15.03
15.82
9.22
-1.81
-14.97
-29.07
-43.36
-56.30
-65.01
-65.81
-55.77
-34.33
-3.99
30.36
63.11
89.73
107.98
117.98
121.45
120.64
117.32
112.40
106.08
98.33
89.46
80.32
72.18
66.21
62.99
62.25
62.99
63.95
64.18
63.23
61.29
58.82
56.27
53.87
51.58
49.20
46.53
43.58
40.51
37.59
35.01
32.79
30.67
28.30
25.40
21.92
18.14
14.50
11.42
9.06
7.29
5.75
4.09
2.09
-0.20
-2.62
-4.94
-7.00
-8.79
-10.34
-11.69
-12.83
-13.66
-14.11
-14.17
-13.98
-13.79
-13.86
-14.34
-15.22
-16.35
-17.51
-18.50
-19.18
-19.46
-19.26
-18.50
-17.17
-15.34
-13.25
-11.20
-9.47
-8.15
-7.19
-6.37
-5.48
-4.35
-2.95
-1.34
0.44
2.34
4.38
6.55
8.82
11.10
13.28
15.21
16.79
17.93
18.62
18.92
18.98
18.98
19.07
19.28
19.47
19.40
18.85
17.77
16.30
14.70
13.20
11.87
10.57
9.09
7.28
5.21
3.06
1.04
-0.78
-2.47
-4.20
-6.07
-8.09
-10.16
-12.23
-14.31
-16.44
-18.57
-20.47
-21.67
-21.72
-20.27
-17.36
-13.32
-8.74
-4.17
-0.00
3.59
6.62
9.20
11.48
13.54
15.42
17.06
18.36
19.22
19.58
19.49
19.07
18.49
17.91
17.40
16.95
16.49
15.95
15.31
14.61
13.89
13.17
12.38
11.40
10.17
8.71
7.17
5.80
4.79
4.22
3.97
3.80
3.47
2.85
1.99
1.05
0.23
-0.32
-0.59
-0.66
-0.71
-0.91
-1.40
-2.22
-3.35
-4.70
-6.17
-7.64
-9.07
-10.46
-11.86
-13.39
-15.20
-17.39
-19.94
-22.58
-24.87
-26.24
-26.29
-24.92
-22.42
-19.33
-16.20
-13.43
-11.18
-9.42
-7.98
-6.64
-5.17
-3.33
-1.00
1.74
4.63
7.27
9.34
10.73
11.59
12.17
12.72
13.34
13.97
14.57
15.08
15.55
16.03
16.46
16.66
16.42
15.60
14.30
12.87
11.81
11.54
12.27
13.84
15.81
17.61
18.76
19.09
18.77
18.21
17.92
18.30
19.45
21.16
22.97
24.40
25.20
25.60
26.19
27.76
30.76
35.01
39.64
43.56
46.09
47.62
49.58
53.96
62.21
74.45
89.22
104.03
116.54
125.56
131.47
135.82
140.30
146.28
154.86
167.39
185.82
212.08
246.29
284.93
320.78
345.17
351.97
340.69
316.77
288.46
262.33
239.99
217.91
190.37
153.19
106.39
53.63
-0.32
-52.39
-102.10
-150.30
-197.42
-242.48
-284.00
-320.81
-353.85
-386.78
-425.23
-473.90
-533.04
-596.87
-654.26
-693.13
-703.26
-680.18
-627.20
-555.40
-479.73
-414.27
-368.99
-347.73
-349.88
-368.90
-394.08
-413.84
-420.09
-409.36
-382.35
-342.89
-295.29
-244.88
-193.78
-140.71
-83.07
-20.28
46.84
117.62
192.04
280.12
377.22
467.69
533.41
569.60
579.42
567.94
543.10
508.34
470.72
433.60
397.39
359.76
317.09
265.81
205.83
142.09
82.43
35.22
4.03
-10.74
-11.08
-0.72
14.68
29.55
40.24
45.40
46.30
44.16
40.89
38.43
37.97
39.04
40.48
41.50
41.76
41.43
39.81
36.14
30.03
21.73
11.87
1.44
-8.37
-16.80
-23.61
-29.45
-35.05
-40.69
-46.10
-50.68
-53.83
-55.19
-54.85
-53.30
-51.31
-49.63
-48.74
-48.69
-49.16
-49.72
-50.01
-49.95
-49.74
-49.68
-50.00
-50.67
-51.34
-51.45
-50.34
-47.54
-42.94
-36.79
-29.67
-22.32
-15.35
-9.14
-3.78
0.93
5.27
9.50
13.75
17.96
21.97
25.57
28.50
30.48
31.28
30.75
28.93
26.07
22.63
19.25
16.63
15.35
15.75
17.76
20.87
24.24
26.87
27.85
26.66
23.25
18.12
12.12
6.32
1.64
-1.27
-2.17
-1.33
0.71
3.26
5.70
7.63
8.89
9.40
9.03
7.57
4.80
0.74
-4.21
-9.28
-13.55
-16.19
-16.78
-15.33
-12.31
-8.49
-4.77
-2.07
-1.17
-2.52
-6.14
-11.52
-17.69
-23.38
-27.37
-28.67
-26.85
-22.17
-15.50
-8.21
-1.73
2.82
5.00
5.15
4.19
3.26
3.28
4.63
7.13
10.20
13.16
15.50
16.98
17.61
17.58
17.10
16.39
15.63
15.01
14.71
14.83
15.27
15.82
16.08
15.70
14.53
12.68
10.51
8.48
6.92
5.97
5.50
5.23
4.82
4.07
2.91
1.42
-0.19
-1.69
-2.92
-3.78
-4.35
-4.76
-5.21
-5.85
-6.75
-7.89
-9.19
-10.56
-11.91
-13.19
-14.38
-15.48
-16.53
-17.57
-18.67
-19.90
-21.32
-22.99
-24.88
-26.90
-28.83
-30.35
-31.10
-30.74
-29.09
-26.16
-22.18
-17.56
-12.76
-8.23
-4.32
-1.19
1.19
3.01
4.58
6.20
8.08
10.29
12.75
15.28
17.67
19.69
21.19
22.10
22.47
22.42
22.16
21.87
21.62
21.43
21.18
20.80
20.20
19.36
18.25
16.85
15.11
13.04
10.78
8.52
6.50
4.86
3.56
2.41
1.12
-0.57
-2.78
-5.43
-8.32
-11.16
-13.71
-15.88
-17.73
-19.42
-21.19
-23.26
-25.78
-28.79
-32.13
-35.47
-38.30
-40.07
-40.37
-39.06
-36.33
-32.59
-28.39
-24.15
-20.13
-16.37
-12.80
-9.29
-5.73
-2.10
1.55
5.12
8.51
11.62
14.43
16.95
19.15
21.03
22.52
23.62
24.38
24.92
25.38
25.90
26.47
27.02
27.42
27.50
27.11
26.18
24.74
22.92
20.92
18.96
17.19
15.70
14.47
13.48
12.61
11.73
10.64
9.17
7.22
4.83
2.15
-0.61
-3.27
-5.75
-8.09
-10.38
-12.76
-15.33
-18.19
-21.33
-24.61
-27.70
-30.11
-31.34
-31.00
-28.98
-25.52
-21.09
-16.29
-11.62
-7.41
-3.73
-0.40
2.85
6.31
10.04
13.90
17.56
20.66
22.99
24.49
25.34
25.71
25.74
25.48
24.97
24.26
23.53
22.93
22.50
22.15
21.65
20.78
19.46
17.76
15.86
13.91
11.97
9.95
7.79
5.48
3.17
1.00
-0.89
-2.54
-4.09
-5.75
-7.63
-9.72
-11.91
-14.01
-15.88
-17.48
-18.87
-20.20
-21.65
-23.42
-25.64
-28.33
-31.29
-34.14
-36.29
-37.15
-36.27
-33.47
-28.94
-23.20
-17.00
-11.09
-6.03
-2.02
1.11
3.76
6.39
9.25
12.30
15.25
17.72
19.53
20.68
21.38
21.88
22.28
22.57
22.64
22.44
22.02
21.54
21.12
20.78
20.43
19.92
19.15
18.14
17.03
15.94
14.93
13.96
12.91
11.70
10.33
8.87
7.42
6.06
4.77
3.48
2.07
0.44
-1.46
-3.59
-5.88
-8.23
-10.55
-12.77
-14.86
-16.82
-18.70
-20.62
-22.77
-25.35
-28.44
-31.91
-35.36
-38.14
-39.58
-39.12
-36.57
-32.10
-26.26
-19.74
-13.26
-7.36
-2.31
1.85
5.30
8.35
11.23
14.09
16.89
19.52
21.80
23.63
25.01
25.96
26.55
26.85
26.92
26.81
26.60
26.30
25.91
25.36
24.58
23.50
22.14
20.54
18.77
16.87
14.90
12.89
10.93
9.10
7.47
6.04
4.68
3.22
1.52
-0.44
-2.56
-4.69
-6.67
-8.47
-10.20
-11.99
-13.93
-16.01
-18.15
-20.29
-22.42
-24.61
-26.87
-29.12
-31.06
-32.29
-32.41
-31.12
-28.40
-24.47
-19.79
-14.87
-10.14
-5.88
-2.10
1.28
4.41
7.32
9.93
12.05
13.57
14.54
15.15
15.66
16.20
16.74
17.12
17.16
16.86
16.37
15.97
15.87
16.11
16.47
16.65
16.33
15.37
13.87
12.06
10.25
8.64
7.26
5.98
4.60
2.91
0.89
-1.35
-3.60
-5.67
-7.46
-9.03
-10.55
-12.16
-13.98
-16.08
-18.47
-21.17
-24.09
-27.04
-29.62
-31.28
-31.48
-29.86
-26.46
-21.70
-16.28
-10.92
-6.20
-2.33
0.81
3.56
6.27
9.13
12.11
14.98
17.49
19.46
20.88
21.83
22.46
22.87
23.06
22.99
22.63
22.02
21.24
20.39
19.56
18.79
18.03
17.19
16.20
14.95
13.40
11.60
9.67
7.77
6.06
4.59
3.29
2.02
0.59
-1.07
-2.95
-4.96
-6.95
-8.82
-10.54
-12.12
-13.59
-15.02
-16.52
-18.25
-20.37
-22.98
-26.04
-29.22
-31.99
-33.70
-33.83
-32.12
-28.71
-24.06
-18.84
-13.64
-8.86
-4.62
-0.78
2.84
6.38
9.83
13.06
15.90
18.27
20.19
21.78
23.14
24.28
25.11
25.50
25.37
24.76
23.88
22.98
22.30
21.93
21.83
21.81
21.61
21.05
20.00
18.52
16.78
15.03
13.50
12.29
11.31
10.37
9.20
7.62
5.60
3.31
1.04
-0.94
-2.49
-3.64
-4.64
-5.76
-7.22
-9.04
-11.09
-13.18
-15.14
-16.90
-18.52
-20.07
-21.64
-23.26
-24.96
-26.79
-28.78
-30.93
-33.08
-34.87
-35.85
-35.57
-33.74
-30.38
-25.81
-20.55
-15.16
-10.05
-5.46
-1.44
2.08
5.21
8.05
10.66
13.09
15.32
17.28
18.86
19.89
20.28
20.07
19.46
18.71
18.05
17.61
17.33
17.04
16.58
15.86
14.96
14.02
13.15
12.38
11.62
10.73
9.65
8.37
6.97
5.51
4.02
2.48
0.87
-0.77
-2.40
-4.00
-5.61
-7.31
-9.17
-11.18
-13.24
-15.18
-16.91
-18.42
-19.81
-21.26
-22.85
-24.59
-26.29
-27.64
-28.24
-27.76
-26.00
-22.98
-18.95
-14.35
-9.68
-5.37
-1.68
1.38
3.97
6.29
8.52
10.64
12.53
14.03
15.03
15.54
15.72
15.75
15.76
15.78
15.73
15.53
15.14
14.64
14.17
13.85
13.73
13.70
13.54
13.00
11.91
10.30
8.39
6.51
4.93
3.74
2.75
1.70
0.28
-1.56
-3.72
-5.96
-8.08
-10.01
-11.82
-13.62
-15.48
-17.35
-19.18
-20.99
-22.89
-25.08
-27.62
-30.34
-32.78
-34.30
-34.33
-32.58
-29.21
-24.69
-19.66
-14.67
-10.05
-5.87
-2.03
1.54
4.87
7.93
10.68
13.12
15.30
17.27
19.05
20.58
21.74
22.45
22.69
22.54
22.14
21.64
21.15
20.66
20.15
19.56
18.87
18.11
17.30
16.47
15.61
14.72
13.79
12.89
12.03
11.21
10.29
9.12
7.56
5.65
3.55
1.52
-0.23
-1.68
-2.91
-4.11
-5.44
-6.90
-8.43
-9.94
-11.39
-12.82
-14.31
-15.94
-17.73
-19.70
-21.88
-24.26
-26.79
-29.22
-31.16
-32.08
-31.51
-29.25
-25.44
-20.57
-15.29
-10.20
-5.65
-1.74
1.69
4.82
7.80
10.65
13.28
15.61
17.59
19.23
20.57
21.61
22.28
22.43
21.97
20.89
19.42
17.88
16.66
15.95
15.77
15.87
15.92
15.64
14.92
13.82
12.50
11.16
9.89
8.68
7.47
6.18
4.77
3.26
1.77
0.38
-0.87
-2.06
-3.34
-4.89
-6.81
-9.02
-11.30
-13.35
-15.01
-16.24
-17.19
-18.13
-19.27
-20.74
-22.55
-24.64
-26.86
-28.99
-30.67
-31.40
-30.66
-28.13
-23.89
-18.45
-12.63
-7.25
-2.86
0.50
3.19
5.69
8.34
11.13
13.72
15.71
16.85
17.18
17.04
16.80
16.71
16.72
16.64
16.26
15.54
14.70
14.07
13.92
14.25
14.81
15.14
14.78
13.47
11.26
8.51
5.72
3.44
2.03
1.61
2.02
2.86
3.59
3.63
2.49
-0.08
-3.93
-8.53
-13.04
-16.59
-18.61
-19.01
-18.32
-17.41
-17.22
-18.38
-20.94
-24.41
-27.90
-30.41
-31.10
-29.55
-25.77
-20.23
-13.66
-6.92
-0.77
4.30
8.10
10.80
12.73
14.34
15.97
17.81
19.87
22.00
23.96
25.46
26.29
26.24
25.32
23.68
21.69
19.82
18.53
18.04
18.30
18.96
19.51
19.54
18.85
17.51
15.74
13.85
12.07
10.50
9.12
7.75
6.26
4.49
2.51
0.49
-1.32
-2.73
-3.76
-4.59
-5.54
-6.78
-8.34
-10.01
-11.55
-12.86
-14.02
-15.28
-16.91
-19.08
-21.78
-24.89
-28.12
-31.07
-33.19
-33.94
-32.90
-29.98
-25.49
-20.08
-14.52
-9.44
-5.23
-1.91
0.66
2.76
4.66
6.56
8.55
10.61
12.59
14.31
15.63
16.51
17.05
17.34
17.47
17.44
17.24
16.93
16.65
16.60
16.91
17.49
18.09
18.36
18.00
16.89
15.16
13.04
10.78
8.51
6.32
4.16
2.04
-0.07
-2.16
-4.17
-6.11
-7.97
-9.80
-11.66
-13.62
-15.70
-17.94
-20.36
-22.90
-25.52
-28.13
-30.66
-33.06
-35.48
-38.12
-41.27
-44.89
-48.54
-51.50
-53.03
-52.73
-50.61
-47.30
-43.41
-39.52
-35.56
-31.11
-25.86
-20.00
-14.23
-9.40
-6.60
-6.18
-8.36
-12.68
-18.32
-24.51
-30.70
-36.58
-41.72
-46.07
-48.77
-49.18
-46.23
-38.89
-26.68
-9.88
10.60
34.20
60.16
89.03
115.02
130.42
129.66
113.23
86.49
55.06
27.89
3.94
-18.15
-39.09
-57.88
-72.44
-82.15
-86.26
-85.56
-81.94
-78.60
-77.42
-79.56
-84.55
-90.81
-96.17
-98.39
-95.80
-87.31
-73.14
-53.58
-29.77
-3.12
24.84
52.80
80.05
106.28
131.90
157.29
183.11
209.11
233.99
255.42
271.25
280.39
282.73
278.95
269.73
256.02
238.85
219.88
200.97
184.62
173.05
166.71
163.45
159.13
149.45
131.39
103.98
67.22
23.10
-24.48
-70.62
-110.48
-140.21
-157.86
-164.18
-162.73
-159.92
-160.95
-167.40
-177.16
-186.27
-191.45
-192.38
-192.60
-189.22
-184.06
-180.54
-178.02
-169.88
-149.01
-114.07
-71.68
-33.13
-8.23
-2.01
-12.00
-30.86
-51.32
-69.58
-84.61
-95.60
-99.97
-93.57
-74.07
-42.43
-2.78
38.52
74.87
101.71
116.95
120.10
112.38
95.73
73.65
51.17
33.87
26.97
34.05
55.84
89.02
126.31
157.43
172.70
166.90
141.19
103.28
63.93
32.23
12.10
1.67
-4.66
-12.46
-21.84
-31.59
-39.49
-43.62
-43.80
-41.75
-40.09
-41.29
-47.25
-58.79
-75.95
-96.99
-118.44
-135.98
-145.90
-147.04
-142.30
-138.28
-142.87
-162.26
-197.87
-245.57
-297.38
-344.17
-378.29
-394.70
-391.12
-367.49
-325.67
-268.96
-201.94
-130.06
-58.82
7.10
64.38
111.18
147.32
173.80
192.70
206.67
218.03
228.04
236.19
240.85
240.33
234.10
223.41
211.02
199.93
191.93
186.82
182.54
176.14
165.05
148.22
126.53
102.39
78.72
57.76
40.35
25.85
12.87
0.04
-13.07
-25.76
-36.32
-42.79
-43.85
-39.45
-31.00
-20.92
-11.77
-5.26
-1.60
0.56
3.43
9.21
19.20
33.45
50.86
69.55
87.06
100.39
106.26
101.98
86.05
58.92
23.16
-17.09
-57.03
-92.34
-119.87
-137.63
-144.54
-140.80
-127.95
-108.72
-86.29
-63.30
-41.24
-20.68
-2.13
13.47
24.10
27.65
23.53
13.67
1.89
-8.07
-14.63
-18.93
-22.61
-27.63
-34.95
-44.00
-53.08
-60.78
-67.06
-72.97
-79.06
-81.68
-76.83
-62.85
-41.84
-18.51
1.91
15.99
24.10
30.57
45.46
74.95
117.07
163.03
202.79
230.11
244.82
251.87
258.60
276.49
310.56
356.42
403.42
440.79
461.95
465.44
453.21
395.84
285.97
142.37
-2.85
-125.95
-216.82
-273.33
-297.63
-297.37
-285.64
-271.79
-263.48
-265.61
-275.80
-286.83
-289.92
-278.68
-251.80
-212.11
-160.18
-98.61
-32.90
29.96
84.36
123.53
144.24
146.59
133.29
110.96
85.15
59.21
35.38
16.46
5.79
5.96
16.66
34.04
53.77
71.24
82.71
86.08
80.61
65.96
41.36
5.26
-43.11
-101.26
-162.95
-219.22
-260.87
-281.49
-279.53
-258.34
-224.90
-187.29
-152.23
-123.70
-102.78
-88.25
-77.17
-65.24
-47.23
-18.30
23.86
77.02
133.53
181.91
210.81
213.49
191.02
152.27
110.13
76.05
55.70
47.72
46.46
46.44
45.71
46.34
51.78
63.37
78.54
91.92
98.21
95.18
84.59
71.04
59.26
51.87
48.60
47.07
44.37
38.65
29.97
20.15
11.90
7.69
8.86
14.86
23.48
31.52
35.90
34.71
27.71
16.04
1.34
-15.19
-33.01
-51.68
-70.26
-87.11
-100.52
-109.94
-116.72
-123.95
-135.04
-151.98
-174.23
-198.68
-220.94
-237.11
-245.33
-246.12
-241.58
-233.79
-223.28
-208.84
-188.65
-162.12
-131.46
-101.55
-77.91
-63.94
-58.98
-58.39
-56.16
-48.09
-33.89
-16.92
-1.85
8.03
12.24
12.74
12.40
13.30
16.15
20.60
26.00
31.82
37.53
42.17
44.13
41.64
33.51
20.08
3.50
-12.74
-24.98
-30.69
-29.37
-22.42
-12.20
-0.90
10.39
21.71
33.43
45.39
56.47
64.96
69.51
70.14
68.35
66.45
66.20
67.65
69.13
68.30
63.68
55.82
47.27
41.42
40.97
46.64
57.17
70.03
82.60
92.71
98.90
100.34
96.83
88.98
78.20
66.35
55.08
45.23
36.55
28.17
19.19
9.32
-1.15
-11.69
-22.11
-32.81
-44.53
-57.80
-72.30
-86.77
-99.26
-107.73
-110.60
-106.99
-96.96
-81.48
-62.33
-41.99
-23.15
-8.14
1.86
7.14
9.23
10.04
10.82
11.49
10.80
7.22
0.13
-9.48
-19.30
-26.52
-29.10
-26.44
-19.43
-9.77
0.86
11.50
21.94
32.34
42.58
51.90
58.97
62.49
61.78
57.15
49.84
41.56
33.83
27.61
23.18
20.25
18.24
16.50
14.47
11.76
8.32
4.38
0.38
-3.13
-5.61
-6.59
-5.61
-2.27
3.57
11.48
20.30
28.33
33.87
35.91
34.59
31.16
27.43
24.98
24.49
25.62
27.35
28.44
28.10
26.08
22.73
18.70
14.76
11.61
9.77
9.57
10.94
13.45
16.33
18.72
19.95
19.83
18.68
17.17
15.95
15.43
15.58
16.11
16.65
17.00
17.13
17.12
16.96
16.55
15.80
14.80
13.79
13.06
12.71
12.55
12.23
11.38
9.89
7.90
5.73
3.66
1.82
0.30
-0.85
-1.53
-1.77
-1.80
-2.10
-3.22
-5.48
-8.70
-12.24
-15.30
-17.32
-18.30
-18.78
-19.60
-21.45
-24.63
-28.92
-33.75
-38.43
-42.38
-45.17
-46.48
-46.06
-43.68
-39.33
-33.28
-26.12
-18.59
-11.36
-4.83
0.95
6.11
10.77
14.86
18.13
20.30
21.27
21.24
20.65
20.01
19.72
19.89
20.38
20.88
21.06
20.67
19.70
18.29
16.73
15.28
14.13
13.38
13.02
13.00
13.25
13.61
13.84
13.66
12.81
11.25
9.14
6.81
4.59
2.67
1.01
-0.50
-1.97
-3.44
-4.86
-6.19
-7.53
-9.09
-11.07
-13.55
-16.43
-19.49
-22.45
-25.15
-27.64
-30.02
-32.39
-34.67
-36.54
-37.57
-37.33
-35.58
-32.32
-27.76
-22.31
-16.38
-10.36
-4.60
0.62
5.08
8.64
11.28
13.08
14.24
15.06
15.86
16.92
18.47
20.49
22.72
24.69
25.91
26.03
25.00
23.13
20.96
19.06
17.83
17.37
17.47
17.74
17.82
17.54
16.91
16.14
15.42
14.81
14.25
13.57
12.67
11.54
10.22
8.79
7.25
5.56
3.74
1.94
0.37
-0.82
-1.65
-2.43
-3.57
-5.35
-7.76
-10.48
-13.07
-15.21
-16.86
-18.15
-19.29
-20.38
-21.48
-22.68
-24.20
-26.35
-29.23
-32.50
-35.31
-36.51
-35.14
-30.81
-23.95
-15.61
-7.07
0.56
6.65
11.08
14.04
15.88
16.92
17.39
17.49
17.34
17.03
16.62
16.12
15.49
14.72
13.79
12.67
11.38
9.96
8.51
7.18
6.12
5.46
5.22
5.29
5.44
5.44
5.08
4.36
3.34
2.18
1.02
-0.07
-1.08
-2.04
-3.00
-3.98
-4.96
-5.95
-6.98
-8.15
-9.58
-11.35
-13.38
-15.42
-17.18
-18.48
-19.37
-20.15
-21.28
-23.12
-25.74
-28.86
-31.91
-34.18
-35.07
-34.21
-31.48
-27.08
-21.38
-14.93
-8.33
-2.21
2.91
6.69
9.07
10.28
10.75
10.96
11.36
12.14
13.31
14.66
15.91
16.84
17.29
17.25
16.82
16.16
15.46
14.90
14.62
14.66
15.01
15.54
16.07
16.42
16.38
15.84
14.77
13.27
11.54
9.82
8.27
6.97
5.88
4.84
3.69
2.33
0.78
-0.80
-2.24
-3.40
-4.26
-4.94
-5.58
-6.33
-7.27
-8.42
-9.72
-11.14
-12.60
-14.03
-15.38
-16.63
-17.83
-19.16
-20.86
-23.09
-25.83
-28.73
-31.19
-32.50
-32.07
-29.69
-25.53
-20.11
-14.10
-8.13
-2.69
1.95
5.65
8.39
10.26
11.45
12.15
12.61
12.99
13.37
13.74
14.01
14.10
13.91
13.42
12.65
11.71
10.82
10.22
10.09
10.50
11.33
12.35
13.28
13.95
14.33
14.50
14.61
14.67
14.64
14.36
13.70
12.64
11.23
9.62
7.90
6.13
4.34
2.54
0.79
-0.83
-2.28
-3.55
-4.71
-5.89
-7.14
-8.48
-9.87
-11.24
-12.54
-13.79
-15.01
-16.21
-17.42
-18.71
-20.21
-22.15
-24.70
-27.83
-31.19
-34.11
-35.78
-35.60
-33.30
-29.17
-23.84
-18.12
-12.69
-7.91
-3.90
-0.58
2.18
4.43
6.22
7.56
8.56
9.35
10.05
10.68
11.18
11.40
11.28
10.89
10.45
10.29
10.60
11.41
12.53
13.66
14.53
15.00
15.03
14.67
13.98
12.99
11.77
10.46
9.21
8.17
7.37
6.68
5.91
4.85
3.41
1.69
-0.11
-1.76
-3.15
-4.31
-5.43
-6.70
-8.23
-10.00
-11.82
-13.53
-15.01
-16.35
-17.77
-19.54
-21.82
-24.54
-27.35
-29.69
-30.96
-30.69
-28.66
-24.95
-19.88
-13.98
-7.79
-1.85
3.43
7.76
11.04
13.26
14.59
15.30
15.67
15.99
16.37
16.83
17.23
17.40
17.23
16.65
15.77
14.70
13.63
12.74
12.16
11.99
12.22
12.77
13.43
13.94
14.05
13.62
12.66
11.34
9.95
8.82
8.15
7.97
8.10
8.18
7.85
6.94
5.59
4.14
3.00
2.37
2.09
1.77
0.94
-0.65
-2.99
-5.79
-8.70
-11.44
-13.92
-16.14
-18.10
-19.78
-21.17
-22.39
-23.66
-25.23
-27.18
-29.22
-30.83
-31.31
-30.20
-27.38
-23.19
-18.20
-12.99
-7.98
-3.38
0.78
4.42
7.43
9.78
11.50
12.77
13.81
14.77
15.71
16.57
17.27
17.75
17.99
17.99
17.72
17.14
16.28
15.26
14.30
13.67
13.47
13.67
14.06
14.40
14.51
14.30
13.74
12.83
11.59
10.05
8.36
6.71
5.31
4.32
3.69
3.25
2.75
2.05
1.14
0.14
-0.79
-1.60
-2.37
-3.26
-4.45
-5.99
-7.80
-9.68
-11.47
-13.08
-14.55
-16.00
-17.58
-19.45
-21.67
-24.19
-26.81
-29.13
-30.70
-31.06
-29.89
-27.14
-23.07
-18.12
-12.86
-7.81
-3.32
0.36
3.19
5.21
6.61
7.60
8.43
9.25
10.12
10.98
11.71
12.20
12.43
12.45
12.40
12.40
12.55
12.90
13.47
14.18
14.93
15.58
15.99
16.05
15.73
15.05
14.07
12.89
11.58
10.28
9.14
8.26
7.61
7.03
6.24
5.03
3.32
1.25
-0.93
-2.97
-4.77
-6.38
-7.92
-9.46
-10.97
-12.40
-13.71
-15.01
-16.51
-18.47
-20.94
-23.73
-26.31
-28.00
-28.13
-26.38
-22.84
-18.01
-12.58
-7.24
-2.43
1.65
5.00
7.68
9.76
11.28
12.30
12.94
13.34
13.64
13.91
14.14
14.31
14.36
14.32
14.21
14.13
14.12
14.17
14.27
14.40
14.57
14.79
15.07
15.38
15.63
15.70
15.44
14.79
13.76
12.45
10.97
9.46
8.02
6.73
5.62
4.70
3.89
3.12
2.31
1.41
0.43
-0.59
-1.61
-2.62
-3.64
-4.70
-5.78
-6.87
-7.93
-8.98
-10.12
-11.42
-12.89
-14.41
-15.80
-16.95
-17.90
-18.94
-20.38
-22.43
-24.95
-27.41
-29.15
-29.54
-28.25
-25.28
-20.97
-15.80
-10.30
-4.98
-0.28
3.45
6.05
7.63
8.52
9.15
9.93
11.04
12.38
13.72
14.79
15.41
15.56
15.32
14.77
14.02
13.20
12.44
11.94
11.82
12.11
12.67
13.24
13.54
13.41
12.92
12.24
11.60
11.10
10.71
10.31
9.80
9.17
8.46
7.80
7.23
6.70
6.10
5.32
4.29
3.08
1.79
0.53
-0.66
-1.84
-3.08
-4.39
-5.70
-6.88
-7.82
-8.55
-9.22
-10.07
-11.27
-12.82
-14.58
-16.35
-18.06
-19.80
-21.70
-23.84
-26.03
-27.88
-28.90
-28.65
-26.99
-24.04
-20.16
-15.84
-11.55
-7.64
-4.31
-1.66
0.35
1.79
2.76
3.36
3.71
3.96
4.26
4.72
5.34
5.98
6.43
6.52
6.18
5.57
4.96
4.69
4.97
5.83
7.12
8.54
9.81
10.78
11.45
11.93
12.33
12.66
12.85
12.71
12.11
11.07
9.78
8.48
7.45
6.77
6.34
5.93
5.23
4.06
2.39
0.35
-1.79
-3.79
-5.46
-6.74
-7.68
-8.39
-9.03
-9.82
-10.98
-12.68
-14.95
-17.66
-20.40
-22.63
-23.72
-23.22
-20.98
-17.24
-12.53
-7.52
-2.82
1.16
4.24
6.41
7.81
8.61
9.03
9.30
9.61
10.12
10.81
11.53
12.02
12.04
11.50
10.51
9.32
8.28
7.67
7.62
8.11
8.93
9.84
10.59
11.06
11.18
10.98
10.56
10.01
9.46
8.99
8.64
8.32
7.88
7.18
6.12
4.75
3.24
1.75
0.38
-0.86
-2.03
-3.13
-4.09
-4.83
-5.34
-5.78
-6.37
-7.35
-8.77
-10.53
-12.40
-14.15
-15.67
-17.00
-18.33
-19.87
-21.75
-23.95
-26.27
-28.29
-29.52
-29.50
-27.98
-25.03
-21.00
-16.37
-11.62
-7.11
-3.02
0.57
3.60
6.07
8.02
9.56
10.87
12.14
13.44
14.68
15.67
16.17
16.08
15.48
14.57
13.63
12.87
12.43
12.34
12.57
13.06
13.75
14.47
15.04
15.25
14.97
14.19
13.04
11.73
10.49
9.45
8.66
8.08
7.61
7.13
6.50
5.63
4.48
3.11
1.65
0.25
-0.99
-2.06
-3.02
-3.98
-5.02
-6.22
-7.62
-9.23
-11.02
-12.89
-14.69
-16.28
-17.60
-18.69
-19.78
-21.12
-22.87
-24.97
-27.09
-28.69
-29.18
-28.15
-25.52
-21.57
-16.84
-11.94
-7.37
-3.48
-0.44
1.69
2.99
3.63
3.94
4.28
4.98
6.16
7.75
9.48
11.01
12.09
12.57
12.48
11.92
11.11
10.30
9.73
9.57
9.81
10.32
10.82
11.08
10.99
10.60
10.05
9.47
8.89
8.23
7.37
6.26
4.98
3.73
2.75
2.15
1.85
1.63
1.17
0.26
-1.14
-2.88
-4.76
-6.55
-8.18
-9.70
-11.26
-13.00
-15.05
-17.42
-20.02
-22.64
-24.93
-26.45
-26.81
-25.72
-23.15
-19.36
-14.82
-10.08
-5.63
-1.75
1.44
3.98
5.97
7.47
8.55
9.25
9.68
9.98
10.25
10.56
10.93
11.32
11.65
11.89
12.02
12.15
12.44
13.05
14.08
15.51
17.17
18.76
20.02
20.73
20.82
20.33
19.31
17.79
15.78
13.29
10.46
7.53
4.76
2.32
0.25
-1.61
-3.48
-5.54
-7.84
-10.28
-12.66
-14.75
-16.41
-17.58
-18.32
-18.77
-19.16
-19.77
-20.87
-22.56
-24.72
-26.92
-28.56
-29.00
-27.86
-25.10
-21.08
-16.36
-11.56
-7.12
-3.27
-0.04
2.63
4.84
6.68
8.22
9.52
10.63
11.57
12.36
13.05
13.69
14.31
14.86
15.26
15.39
15.19
14.76
14.29
14.02
14.07
14.35
14.64
14.66
14.22
13.37
12.29
11.21
10.32
9.65
9.10
8.55
7.87
7.03
6.04
4.95
3.76
2.45
1.02
-0.52
-2.10
-3.65
-5.11
-6.46
-7.70
-8.84
-9.93
-11.01
-12.22
-13.74
-15.74
-18.25
-21.11
-23.89
-26.01
-26.92
-26.25
-23.93
-20.24
-15.66
-10.79
-6.15
-2.10
1.21
3.80
5.84
7.50
8.93
10.18
11.29
12.29
13.21
14.08
14.92
15.72
16.40
16.86
17.06
17.01
16.80
16.58
16.51
16.67
17.05
17.53
17.90
17.95
17.58
16.76
15.59
14.22
12.78
11.42
10.21
9.21
8.47
7.95
7.60
7.29
6.88
6.27
5.44
4.45
3.43
2.49
1.69
0.99
0.30
-0.49
-1.43
-2.49
-3.64
-4.76
-5.77
-6.64
-7.38
-8.06
-8.84
-9.90
-11.43
-13.55
-16.25
-19.34
-22.42
-25.00
-26.59
-26.81
-25.56
-23.00
-19.56
-15.79
-12.17
-9.01
-6.37
-4.13
-2.11
-0.20
1.59
3.17
4.40
5.24
5.75
6.13
6.60
7.32
8.34
9.54
10.71
11.61
12.12
12.28
12.24
12.18
12.19
12.25
12.24
12.04
11.61
11.00
10.28
9.51
8.72
7.90
7.09
6.35
5.72
5.21
4.70
4.06
3.18
2.05
0.80
-0.41
-1.43
-2.19
-2.75
-3.30
-4.02
-5.08
-6.50
-8.19
-9.95
-11.52
-12.77
-13.77
-14.77
-16.07
-17.84
-19.99
-22.08
-23.51
-23.69
-22.32
-19.47
-15.55
-11.17
-6.92
-3.24
-0.37
1.67
3.01
3.85
4.42
4.91
5.48
6.19
7.06
8.05
9.03
9.87
10.42
10.62
10.47
10.09
9.69
9.46
9.56
10.01
10.72
11.48
12.05
12.25
12.02
11.38
10.47
9.46
8.47
7.56
6.70
5.83
4.96
4.14
3.42
2.84
2.30
1.62
0.61
-0.85
-2.74
-4.86
-6.92
-8.71
-10.11
-11.15
-12.02
-12.89
-13.93
-15.23
-16.82
-18.62
-20.51
-22.27
-23.58
-24.09
-23.51
-21.75
-18.96
-15.50
-11.82
-8.31
-5.21
-2.54
-0.23
1.87
3.86
5.85
7.87
9.95
12.02
13.99
15.64
16.80
17.31
17.13
16.32
15.09
13.77
12.76
12.42
12.98
14.39
16.19
17.68
18.14
17.13
14.70
11.35
7.86
4.90
2.82
1.57
0.83
0.27
-0.30
-0.89
-1.40
-1.72
-1.86
-1.94
-2.14
-2.66
-3.59
-4.94
-6.57
-8.27
-9.76
-10.88
-11.64
-12.23
-12.98
-14.18
-15.99
-18.28
-20.74
-22.91
-24.33
-24.69
-23.89
-22.01
-19.25
-15.88
-12.17
-8.34
-4.63
-1.25
1.55
3.62
4.95
5.66
6.05
6.42
6.96
7.72
8.59
9.43
10.10
10.53
10.72
10.67
10.39
9.90
9.29
8.72
8.38
8.41
8.82
9.49
10.16
10.61
10.63
10.20
9.41
8.44
7.46
6.57
5.77
5.01
4.22
3.40
2.56
1.73
0.88
-0.05
-1.17
-2.58
-4.25
-6.09
-7.90
-9.50
-10.75
-11.65
-12.29
-12.88
-13.63
-14.76
-16.40
-18.51
-20.87
-23.10
-24.72
-25.32
-24.65
-22.72
-19.81
-16.31
-12.68
-9.26
-6.26
-3.73
-1.61
0.22
1.94
3.65
5.40
7.09
8.62
9.84
10.73
11.32
11.70
11.96
12.10
12.10
11.95
11.69
11.47
11.41
11.59
11.98
12.43
12.73
12.70
12.24
11.36
10.16
8.86
7.62
6.56
5.66
4.81
3.81
2.58
1.09
-0.58
-2.33
-4.08
-5.81
-7.49
-9.12
-10.65
-12.07
-13.48
-15.05
-16.95
-19.24
-21.70
-23.97
-25.56
-26.02
-25.15
-22.94
-19.63
-15.54
-11.06
-6.54
-2.35
1.19
3.88
5.70
6.78
7.50
8.21
9.21
10.55
12.09
13.56
14.70
15.33
15.45
15.13
14.50
13.70
12.88
12.17
11.75
11.70
11.99
12.49
12.96
13.17
13.01
12.46
11.66
10.78
9.97
9.29
8.66
7.99
7.12
6.03
4.73
3.34
2.02
0.84
-0.21
-1.27
-2.48
-3.98
-5.77
-7.76
-9.74
-11.52
-13.05
-14.38
-15.69
-17.19
-18.97
-20.90
-22.70
-23.95
-24.31
-23.62
-21.90
-19.31
-16.12
-12.54
-8.77
-4.97
-1.38
1.80
4.37
6.28
7.65
8.75
9.87
11.23
12.83
14.51
16.00
17.03
17.48
17.37
16.86
16.14
15.40
14.74
14.25
13.95
13.83
13.82
13.85
13.79
13.54
13.03
12.29
11.40
10.49
9.71
9.08
8.56
8.03
7.30
6.28
4.94
3.40
1.87
0.52
-0.49
-1.18
-1.63
-2.04
-2.58
-3.42
-4.61
-6.14
-7.89
-9.71
-11.43
-12.97
-14.40
-15.83
-17.48
-19.47
-21.71
-23.95
-25.75
-26.62
-26.24
-24.56
-21.74
-18.18
-14.33
-10.55
-7.15
-4.28
-2.02
-0.34
0.85
1.80
2.73
3.84
5.16
6.55
7.79
8.70
9.22
9.37
9.28
9.06
8.81
8.62
8.62
8.91
9.53
10.36
11.19
11.80
12.05
11.98
11.74
11.45
11.10
10.61
9.91
9.01
8.03
7.13
6.34
5.57
4.57
3.17
1.35
-0.72
-2.78
-4.59
-6.05
-7.20
-8.18
-9.14
-10.25
-11.65
-13.50
-15.86
-18.60
-21.39
-23.71
-24.98
-24.81
-23.08
-20.02
-16.14
-12.00
-8.11
-4.79
-2.16
-0.18
1.35
2.64
3.90
5.26
6.74
8.28
9.73
10.97
11.91
12.54
12.84
12.88
12.70
12.41
12.16
12.11
12.41
13.07
13.99
14.90
15.53
15.69
15.31
14.52
13.52
12.52
11.62
10.82
9.97
8.97
7.75
6.39
5.08
4.05
3.39
3.04
2.77
2.29
1.39
0.03
-1.69
-3.57
-5.48
-7.34
-9.15
-10.86
-12.39
-13.61
-14.54
-15.34
-16.36
-17.91
-20.07
-22.58
-24.89
-26.37
-26.53
-25.24
-22.67
-19.22
-15.28
-11.16
-7.12
-3.34
-0.02
2.67
4.66
6.00
6.91
7.66
8.53
9.67
11.08
12.62
14.06
15.17
15.79
15.83
15.33
14.45
13.41
12.45
11.78
11.45
11.38
11.40
11.31
10.93
10.29
9.50
8.74
8.17
7.83
7.65
7.44
7.03
6.30
5.20
3.78
2.16
0.50
-1.05
-2.36
-3.42
-4.27
-5.02
-5.74
-6.49
-7.30
-8.15
-9.07
-10.10
-11.32
-12.79
-14.51
-16.46
-18.56
-20.75
-22.94
-24.97
-26.58
-27.44
-27.20
-25.65
-22.83
-19.04
-14.76
-10.52
-6.73
-3.61
-1.18
0.66
2.06
3.22
4.30
5.40
6.59
7.79
8.88
9.66
9.99
9.87
9.47
9.06
8.95
9.29
10.00
10.87
11.61
12.05
12.17
12.12
12.03
11.94
11.80
11.46
10.84
9.99
9.04
8.19
7.54
7.08
6.70
6.25
5.63
4.77
3.64
2.21
0.47
-1.53
-3.68
-5.79
-7.68
-9.23
-10.50
-11.69
-13.08
-14.90
-17.18
-19.67
-21.95
-23.49
-23.84
-22.76
-20.29
-16.73
-12.55
-8.26
-4.28
-0.89
1.80
3.83
5.31
6.40
7.24
8.01
8.84
9.78
10.83
11.90
12.85
13.49
13.73
13.53
13.02
12.46
12.08
12.09
12.54
13.30
14.12
14.70
14.82
14.35
13.36
12.01
10.51
9.13
8.02
7.25
6.76
6.39
5.93
5.25
4.26
3.01
1.60
0.16
-1.22
-2.49
-3.65
-4.73
-5.83
-6.99
-8.22
-9.51
-10.80
-12.09
-13.36
-14.67
-16.07
-17.58
-19.20
-20.85
-22.37
-23.53
-24.00
-23.52
-21.95
-19.34
-15.95
-12.16
-8.35
-4.79
-1.64
0.99
3.11
4.80
6.23
7.58
9.04
10.65
12.35
13.92
15.17
15.96
16.28
16.23
15.93
15.51
15.10
14.78
14.64
14.66
14.80
14.92
14.90
14.65
14.17
13.52
12.80
12.12
11.53
11.03
10.58
10.11
9.51
8.70
7.61
6.23
4.65
2.98
1.34
-0.17
-1.56
-2.85
-4.08
-5.26
-6.45
-7.68
-9.09
-10.79
-12.80
-15.02
-17.23
-19.21
-20.88
-22.36
-23.85
-25.52
-27.27
-28.76
-29.50
-29.05
-27.27
-24.30
-20.55
-16.46
-12.42
-8.68
-5.36
-2.53
-0.21
1.66
3.18
4.52
5.83
7.15
8.45
9.61
10.55
11.21
11.60
11.77
11.79
11.73
11.66
11.68
11.80
12.01
12.21
12.29
12.17
11.82
11.28
10.59
9.76
8.83
7.85
6.95
6.24
5.81
5.57
5.26
4.60
3.33
1.45
-0.85
-3.19
-5.20
-6.66
-7.56
-8.09
-8.51
-9.08
-9.94
-11.18
-12.83
-14.89
-17.22
-19.59
-21.61
-22.79
-22.74
-21.27
-18.49
-14.78
-10.62
-6.48
-2.63
0.76
3.64
5.96
7.70
8.84
9.48
9.81
10.11
10.61
11.37
12.29
13.08
13.47
13.35
12.85
12.23
11.84
11.88
12.35
13.07
13.75
14.14
14.11
13.66
12.93
12.09
11.29
10.63
10.13
9.73
9.32
8.83
8.18
7.35
6.34
5.15
3.80
2.33
0.78
-0.76
-2.28
-3.77
-5.26
-6.77
-8.28
-9.73
-11.03
-12.15
-13.12
-14.06
-15.15
-16.59
-18.50
-20.83
-23.37
-25.72
-27.41
-28.01
-27.27
-25.21
-22.06
-18.19
-14.02
-9.90
-6.08
-2.74
0.06
2.35
4.24
5.93
7.55
9.16
10.70
12.03
13.01
13.61
13.84
13.81
13.61
13.36
13.12
12.98
13.01
13.22
13.54
13.84
14.00
13.97
13.73
13.37
12.92
12.42
11.88
11.28
10.63
9.94
9.20
8.39
7.52
6.59
5.62
4.60
3.51
2.29
0.93
-0.53
-2.00
-3.37
-4.63
-5.82
-7.09
-8.52
-10.14
-11.82
-13.39
-14.78
-16.07
-17.48
-19.27
-21.55
-24.12
-26.48
-28.00
-28.15
-26.70
-23.82
-20.02
-15.91
-12.03
-8.65
-5.86
-3.57
-1.66
-0.02
1.38
2.57
3.63
4.64
5.72
6.90
8.15
9.31
10.22
10.75
10.92
10.90
10.90
11.10
11.54
12.07
12.48
12.62
12.43
11.99
11.45
10.90
10.34
9.70
8.95
8.10
7.26
6.53
5.91
5.31
4.51
3.32
1.69
-0.29
-2.42
-4.43
-6.17
-7.57
-8.69
-9.63
-10.54
-11.58
-12.91
-14.70
-16.97
-19.57
-22.15
-24.18
-25.16
-24.77
-23.01
-20.10
-16.45
-12.49
-8.58
-4.98
-1.87
0.68
2.73
4.45
6.07
7.75
9.49
11.15
12.46
13.27
13.56
13.50
13.33
13.21
13.17
13.15
13.11
13.05
13.06
13.26
13.71
14.36
15.05
15.57
15.76
15.48
14.74
13.63
12.33
11.00
9.75
8.63
7.67
6.84
6.17
5.62
5.12
4.55
3.77
2.68
1.32
-0.25
-1.90
-3.56
-5.23
-6.92
-8.64
-10.33
-11.90
-13.31
-14.62
-16.04
-17.76
-19.92
-22.41
-24.91
-26.88
-27.82
-27.38
-25.53
-22.51
-18.73
-14.66
-10.68
-7.04
-3.84
-1.10
1.21
3.22
5.03
6.77
8.43
9.97
11.24
12.15
12.67
12.87
12.87
12.80
12.76
12.83
13.06
13.48
14.07
14.77
15.44
15.90
16.00
15.73
15.17
14.49
13.83
13.26
12.71
12.06
11.27
10.35
9.40
8.50
7.60
6.60
5.38
3.96
2.51
1.28
0.43
-0.12
-0.65
-1.53
-2.98
-4.97
-7.23
-9.41
-11.22
-12.55
-13.51
-14.31
-15.18
-16.29
-17.75
-19.58
-21.68
-23.87
-25.87
-27.34
-27.94
-27.41
-25.66
-22.77
-19.01
-14.79
-10.61
-6.92
-4.03
-2.08
-0.92
-0.24
0.38
1.33
2.80
4.74
6.85
8.74
10.04
10.58
10.42
9.88
9.35
9.19
9.60
10.54
11.76
12.87
13.55
13.62
13.14
12.30
11.35
10.48
9.70
8.96
8.20
7.42
6.66
5.96
5.28
4.54
3.64
2.50
1.14
-0.36
-1.87
-3.31
-4.58
-5.69
-6.69
-7.65
-8.66
-9.84
-11.28
-13.01
-15.02
-17.14
-19.09
-20.47
-20.89
-20.08
-18.04
-15.01
-11.42
-7.72
-4.25
-1.20
1.42
3.65
5.53
7.09
8.35
9.32
10.05
10.59
11.03
11.44
11.89
12.35
12.76
12.98
12.93
12.62
12.19
11.80
11.61
11.65
11.84
12.03
12.08
11.93
11.55
10.96
10.19
9.28
8.30
7.36
6.57
5.97
5.53
5.10
4.58
3.86
2.99
2.03
1.05
0.08
-0.98
-2.20
-3.67
-5.35
-7.09
-8.69
-9.98
-10.91
-11.54
-12.12
-12.87
-14.04
-15.68
-17.74
-20.02
-22.22
-23.97
-24.93
-24.86
-23.63
-21.30
-18.05
-14.20
-10.08
-6.01
-2.29
0.87
3.38
5.31
6.82
8.12
9.37
10.61
11.75
12.68
13.33
13.72
13.94
14.06
14.13
14.13
14.05
13.89
13.70
13.55
13.41
13.22
12.91
12.47
12.01
11.64
11.44
11.38
11.33
11.08
10.54
9.70
8.73
7.80
7.06
6.49
5.93
5.16
4.01
2.45
0.62
-1.24
-2.91
-4.29
-5.40
-6.41
-7.46
-8.62
-9.86
-11.05
-12.11
-13.05
-14.00
-15.11
-16.47
-18.10
-19.95
-21.98
-24.11
-26.20
-27.95
-28.96
-28.79
-27.25
-24.45
-20.83
-16.91
-13.13
-9.69
-6.59
-3.78
-1.27
0.86
2.52
3.72
4.63
5.47
6.40
7.46
8.49
9.33
9.84
10.03
10.06
10.09
10.31
10.74
11.30
11.81
12.11
12.10
11.78
11.27
10.69
10.15
9.69
9.28
8.83
8.32
7.72
7.08
6.45
5.82
5.11
4.18
2.94
1.36
-0.45
-2.32
-4.07
-5.61
-6.92
-8.06
-9.13
-10.26
-11.61
-13.34
-15.54
-18.05
-20.53
-22.40
-23.11
-22.34
-20.13
-16.89
-13.21
-9.62
-6.43
-3.70
-1.35
0.73
2.59
4.24
5.63
6.84
7.95
9.06
10.27
11.52
12.70
13.60
14.07
14.07
13.71
13.21
12.83
12.78
13.08
13.64
14.23
14.58
14.48
13.90
12.92
11.80
10.78
10.04
9.58
9.22
8.77
8.07
7.12
6.07
5.10
4.31
3.64
2.97
2.05
0.76
-0.90
-2.77
-4.64
-6.33
-7.73
-8.86
-9.82
-10.76
-11.78
-13.00
-14.47
-16.24
-18.35
-20.72
-23.19
-25.38
-26.86
-27.23
-26.26
-24.01
-20.78
-16.98
-13.02
-9.22
-5.78
-2.80
-0.31
1.68
3.26
4.61
5.91
7.29
8.76
10.19
11.43
12.38
13.02
13.43
13.74
14.06
14.44
14.90
15.42
15.94
16.40
16.66
16.61
16.18
15.44
14.54
13.63
12.83
12.13
11.49
10.81
10.11
9.39
8.74
8.17
7.62
6.96
6.05
4.83
3.27
1.51
-0.28
-1.92
-3.27
-4.29
-5.07
-5.77
-6.62
-7.76
-9.24
-10.95
-12.73
-14.41
-15.90
-17.27
-18.69
-20.32
-22.25
-24.33
-26.25
-27.56
-27.85
-26.91
-24.71
-21.52
-17.72
-13.68
-9.76
-6.19
-3.15
-0.74
1.02
2.21
3.06
3.80
4.67
5.77
7.06
8.40
9.59
10.44
10.88
10.93
10.73
10.48
10.35
10.50
10.94
11.62
12.34
12.90
13.13
12.92
12.31
11.44
10.54
9.77
9.26
9.00
8.91
8.83
8.64
8.22
7.47
6.34
4.77
2.83
0.64
-1.57
-3.59
-5.27
-6.64
-7.80
-8.89
-10.03
-11.25
-12.60
-14.12
-15.89
-17.89
-19.94
-21.63
-22.50
-22.16
-20.50
-17.76
-14.35
-10.78
-7.41
-4.45
-1.95
0.12
1.82
3.22
4.41
5.51
6.59
7.73
8.92
10.13
11.31
12.39
13.29
13.91
14.19
14.13
13.88
13.67
13.70
14.05
14.61
15.15
15.39
15.20
14.62
13.79
12.89
12.06
11.34
10.70
10.08
9.43
8.76
8.10
7.50
6.93
6.35
5.67
4.80
3.73
2.50
1.25
0.13
-0.81
-1.60
-2.38
-3.35
-4.62
-6.22
-8.07
-10.00
-11.83
-13.40
-14.64
-15.58
-16.40
-17.37
-18.73
-20.60
-22.77
-24.81
-26.12
-26.21
-24.87
-22.25
-18.80
-15.05
-11.48
-8.30
-5.60
-3.28
-1.22
0.68
2.47
4.19
5.89
7.54
9.12
10.51
11.63
12.41
12.82
12.93
12.84
12.72
12.66
12.74
12.95
13.22
13.48
13.61
13.59
13.41
13.12
12.81
12.56
12.41
12.34
12.22
11.90
11.29
10.42
9.43
8.44
7.57
6.73
5.80
4.64
3.28
1.88
0.64
-0.32
-1.07
-1.79
-2.72
-3.96
-5.44
-7.06
-8.67
-10.23
-11.70
-13.08
-14.28
-15.25
-15.96
-16.52
-17.18
-18.21
-19.80
-21.92
-24.25
-26.25
-27.32
-26.98
-25.07
-21.79
-17.65
-13.31
-9.33
-6.06
-3.52
-1.51
0.23
1.91
3.55
5.07
6.30
7.19
7.82
8.36
8.92
9.52
10.02
10.27
10.26
10.18
10.34
11.00
12.18
13.60
14.81
15.44
15.34
14.65
13.70
12.77
12.01
11.39
10.76
10.06
9.27
8.44
7.62
6.79
5.87
4.81
3.62
2.41
1.30
0.36
-0.51
-1.50
-2.79
-4.43
-6.34
-8.30
-10.08
-11.53
-12.66
-13.61
-14.61
-15.85
-17.49
-19.55
-21.86
-24.05
-25.64
-26.12
-25.21
-22.88
-19.47
-15.51
-11.55
-7.98
-4.93
-2.37
-0.20
1.61
3.07
4.18
5.02
5.80
6.77
8.05
9.57
11.02
12.05
12.39
12.06
11.36
10.68
10.44
10.79
11.67
12.81
13.93
14.77
15.19
15.20
14.83
14.21
13.44
12.65
11.89
11.18
10.48
9.77
9.05
8.28
7.45
6.53
5.49
4.33
3.09
1.83
0.64
-0.48
-1.54
-2.58
-3.65
-4.80
-6.01
-7.25
-8.52
-9.81
-11.15
-12.56
-14.07
-15.68
-17.43
-19.34
-21.41
-23.51
-25.41
-26.72
-27.05
-26.14
-23.99
-20.87
-17.23
-13.52
-10.01
-6.81
-3.91
-1.33
0.88
2.65
3.98
4.99
5.89
6.89
8.11
9.46
10.75
11.75
12.27
12.27
11.88
11.29
10.79
10.60
10.80
11.31
11.92
12.39
12.53
12.31
11.77
11.04
10.25
9.53
8.93
8.47
8.11
7.79
7.43
6.93
6.26
5.44
4.47
3.41
2.26
1.06
-0.18
-1.37
-2.48
-3.48
-4.40
-5.31
-6.34
-7.58
-9.05
-10.70
-12.43
-14.18
-15.92
-17.70
-19.59
-21.54
-23.36
-24.67
-25.15
-24.57
-22.96
-20.56
-17.65
-14.44
-11.02
-7.42
-3.73
-0.17
2.99
5.51
7.32
8.55
9.38
10.00
10.50
10.89
11.19
11.48
11.85
12.37
13.01
13.68
14.27
14.69
14.93
15.00
14.90
14.61
14.10
13.40
12.65
12.00
11.61
11.46
11.39
11.15
10.51
9.40
7.96
6.49
5.23
4.36
3.81
3.41
2.89
2.06
0.78
-0.95
-3.03
-5.26
-7.37
-9.15
-10.47
-11.37
-12.07
-12.83
-13.87
-15.30
-17.11
-19.18
-21.27
-23.04
-24.15
-24.24
-23.09
-20.73
-17.39
-13.48
-9.47
-5.72
-2.50
0.07
1.98
3.38
4.52
5.71
7.22
9.08
11.16
13.10
14.58
15.36
15.48
15.10
14.50
13.89
13.46
13.31
13.49
14.01
14.77
15.62
16.34
16.76
16.80
16.48
15.95
15.31
14.66
14.01
13.33
12.60
11.78
10.85
9.83
8.74
7.64
6.59
5.66
4.88
4.26
3.75
3.30
2.84
2.30
1.59
0.63
-0.66
-2.29
-4.20
-6.24
-8.20
-9.92
-11.35
-12.51
-13.54
-14.60
-15.83
-17.36
-19.27
-21.53
-24.00
-26.35
-28.13
-28.91
-28.37
-26.43
-23.26
-19.30
-15.06
-11.08
-7.70
-5.07
-3.06
-1.41
0.19
1.90
3.73
5.53
7.07
8.26
9.07
9.58
9.88
10.04
10.12
10.17
10.32
10.64
11.21
11.95
12.74
13.42
13.89
14.12
14.14
13.96
13.56
12.90
11.97
10.88
9.79
8.87
8.18
7.65
7.10
6.35
5.31
4.06
2.77
1.61
0.64
-0.15
-0.91
-1.78
-2.85
-4.15
-5.66
-7.35
-9.16
-11.01
-12.79
-14.38
-15.72
-16.89
-18.05
-19.42
-21.10
-22.97
-24.64
-25.55
-25.23
-23.49
-20.51
-16.72
-12.67
-8.75
-5.11
-1.80
1.17
3.77
5.87
7.44
8.56
9.47
10.43
11.57
12.82
13.94
14.65
14.77
14.34
13.54
12.67
12.00
11.67
11.68
11.93
12.26
12.56
12.73
12.74
12.55
12.13
11.45
10.55
9.56
8.64
7.91
7.39
6.95
6.39
5.56
4.44
3.16
1.93
0.91
0.14
-0.51
-1.19
-2.09
-3.31
-4.82
-6.53
-8.30
-10.01
-11.53
-12.84
-14.04
-15.33
-16.91
-18.93
-21.35
-23.90
-26.16
-27.69
-28.21
-27.58
-25.89
-23.30
-20.03
-16.33
-12.46
-8.72
-5.36
-2.56
-0.31
1.50
3.12
4.70
6.33
7.93
9.38
10.56
11.39
11.90
12.16
12.31
12.43
12.62
12.95
13.43
14.02
14.62
15.08
15.26
15.10
14.58
13.83
12.99
12.19
11.56
11.10
10.82
10.63
10.45
10.20
9.80
9.19
8.32
7.21
5.86
4.38
2.90
1.57
0.50
-0.32
-0.98
-1.64
-2.47
-3.61
-5.01
-6.58
-8.13
-9.51
-10.66
-11.63
-12.54
-13.53
-14.73
-16.23
-18.09
-20.26
-22.64
-24.95
-26.78
-27.69
-27.33
-25.63
-22.78
-19.25
-15.52
-11.97
-8.76
-5.89
-3.30
-0.95
1.12
2.90
4.39
5.68
6.87
8.03
9.17
10.21
11.07
11.66
11.96
12.01
11.90
11.74
11.65
11.71
11.92
12.21
12.46
12.57
12.49
12.25
11.92
11.54
11.13
10.66
10.09
9.40
8.65
7.90
7.20
6.54
5.82
4.92
3.82
2.57
1.30
0.16
-0.78
-1.54
-2.20
-2.88
-3.63
-4.55
-5.67
-7.09
-8.80
-10.77
-12.84
-14.80
-16.54
-18.05
-19.43
-20.85
-22.36
-23.81
-24.87
-25.15
-24.36
-22.39
-19.39
-15.67
-11.63
-7.68
-4.17
-1.29
0.92
2.60
4.02
5.44
7.01
8.70
10.28
11.51
12.20
12.35
12.10
11.70
11.37
11.23
11.31
11.54
11.82
12.01
12.05
11.91
11.60
11.17
10.65
10.06
9.38
8.65
7.90
7.19
6.52
5.84
5.07
4.11
3.01
1.90
0.94
0.22
-0.31
-0.87
-1.72
-3.02
-4.77
-6.81
-8.89
-10.79
-12.38
-13.68
-14.85
-16.11
-17.69
-19.75
-22.21
-24.79
-27.04
-28.50
-28.82
-27.90
-25.84
-22.91
-19.38
-15.52
-11.55
-7.70
-4.19
-1.22
1.12
2.92
4.38
5.78
7.28
8.91
10.49
11.82
12.74
13.23
13.40
13.43
13.45
13.54
13.70
13.96
14.39
15.07
16.00
17.06
17.97
18.46
18.34
17.63
16.54
15.37
14.39
13.71
13.24
12.80
12.20
11.29
10.08
8.69
7.23
5.83
4.58
3.51
2.61
1.82
1.06
0.17
-0.98
-2.47
-4.27
-6.24
-8.20
-10.02
-11.66
-13.18
-14.73
-16.40
-18.30
-20.46
-22.84
-25.29
-27.54
-29.18
-29.78
-29.03
-26.88
-23.60
-19.67
-15.60
-11.74
-8.23
-5.03
-2.03
0.77
3.38
5.73
7.78
9.59
11.21
12.67
13.92
14.91
15.54
15.82
15.81
15.64
15.48
15.46
15.67
16.09
16.63
17.11
17.38
17.33
16.99
16.46
15.87
15.29
14.74
14.17
13.52
12.78
11.99
11.20
10.41
9.60
8.68
7.60
6.37
5.04
3.71
2.42
1.19
-0.01
-1.19
-2.33
-3.42
-4.45
-5.49
-6.64
-8.01
-9.66
-11.53
-13.45
-15.24
-16.77
-18.09
-19.37
-20.84
-22.68
-24.79
-26.88
-28.46
-29.07
-28.41
-26.44
-23.39
-19.57
-15.35
-11.04
-6.91
-3.22
-0.12
2.34
4.29
5.98
7.68
9.50
11.36
13.02
14.24
14.89
15.00
14.77
14.40
14.05
13.78
13.62
13.62
13.79
14.18
14.71
15.26
15.64
15.69
15.33
14.62
13.71
12.80
12.05
11.45
10.90
10.27
9.44
8.41
7.24
6.02
4.74
3.35
1.73
-0.12
-2.15
-4.18
-6.06
-7.74
-9.25
-10.71
-12.18
-13.72
-15.34
-17.06
-18.97
-21.12
-23.47
-25.80
-27.72
-28.79
-28.63
-27.09
-24.27
-20.50
-16.21
-11.85
-7.78
-4.19
-1.19
1.25
3.25
4.96
6.54
8.12
9.69
11.20
12.54
13.60
14.29
14.61
14.61
14.39
14.16
14.11
14.38
14.96
15.69
16.34
16.70
16.66
16.28
15.68
14.97
14.19
13.33
12.40
11.42
10.47
9.61
8.83
8.04
7.12
6.02
4.78
3.52
2.38
1.45
0.73
0.07
-0.70
-1.76
-3.20
-4.97
-6.91
-8.85
-10.63
-12.22
-13.68
-15.12
-16.71
-18.59
-20.83
-23.32
-25.81
-27.81
-28.79
-28.33
-26.28
-22.87
-18.63
-14.19
-10.04
-6.44
-3.39
-0.70
1.81
4.23
6.55
8.64
10.35
11.61
12.46
13.01
13.41
13.79
14.14
14.42
14.55
14.49
14.31
14.11
14.01
14.08
14.34
14.72
15.14
15.49
15.65
15.56
15.16
14.50
13.63
12.67
11.68
10.66
9.54
8.27
6.85
5.33
3.87
2.58
1.48
0.49
-0.50
-1.64
-3.00
-4.56
-6.26
-8.06
-9.90
-11.73
-13.48
-15.12
-16.60
-18.03
-19.60
-21.51
-23.80
-26.25
-28.36
-29.50
-29.19
-27.26
-23.97
-19.89
-15.67
-11.79
-8.44
-5.64
-3.23
-1.12
0.72
2.31
3.72
5.04
6.42
7.89
9.39
10.70
11.64
12.10
12.14
11.96
11.75
11.68
11.77
11.96
12.18
12.35
12.48
12.51
12.45
12.28
11.98
11.60
11.17
10.70
10.14
9.41
8.42
7.16
5.66
4.00
2.27
0.50
-1.26
-2.98
-4.64
-6.20
-7.67
-9.11
-10.64
-12.42
-14.59
-17.19
-20.14
-23.20
-25.94
-27.90
-28.66
-28.00
-25.98
-22.90
-19.18
-15.26
-11.45
-7.92
-4.72
-1.88
0.64
2.91
5.08
7.28
9.56
11.85
13.88
15.36
16.08
16.07
15.57
14.95
14.57
14.57
14.94
15.47
15.95
16.25
16.34
16.30
16.19
16.03
15.78
15.36
14.72
13.83
12.74
11.51
10.27
9.07
8.00
7.05
6.19
5.30
4.23
2.88
1.22
-0.68
-2.62
-4.46
-6.11
-7.57
-8.93
-10.27
-11.64
-12.99
-14.29
-15.59
-17.07
-18.97
-21.43
-24.38
-27.39
-29.82
-31.01
-30.58
-28.56
-25.33
-21.48
-17.47
-13.60
-9.92
-6.44
-3.18
-0.24
2.25
4.29
5.99
7.58
9.20
10.94
12.66
14.16
15.25
15.85
16.02
15.93
15.77
15.68
15.78
16.07
16.51
17.04
17.53
17.85
17.86
17.50
16.75
15.72
14.55
13.44
12.52
11.80
11.22
10.60
9.75
8.52
6.89
4.98
2.96
1.01
-0.78
-2.41
-3.96
-5.49
-7.02
-8.54
-10.05
-11.57
-13.15
-14.81
-16.49
-18.12
-19.64
-21.13
-22.76
-24.68
-26.88
-29.02
-30.58
-30.95
-29.81
-27.17
-23.45
-19.26
-15.10
-11.26
-7.75
-4.43
-1.22
1.82
4.51
6.63
8.15
9.14
9.87
10.57
11.37
12.24
13.02
13.59
13.87
13.93
13.90
13.89
13.92
13.98
14.01
14.03
14.11
14.28
14.52
14.69
14.60
14.12
13.25
12.15
11.01
9.96
8.99
7.99
6.83
5.45
3.93
2.34
0.73
-0.97
-2.88
-5.07
-7.49
-9.96
-12.23
-14.20
-15.93
-17.62
-19.56
-21.84
-24.35
-26.68
-28.29
-28.69
-27.63
-25.18
-21.68
-17.67
-13.58
-9.73
-6.22
-3.00
-0.01
2.81
5.43
7.78
9.84
11.59
13.07
14.26
15.12
15.59
15.68
15.47
15.17
14.98
15.08
15.50
16.12
16.74
17.11
17.02
16.40
15.36
14.19
13.27
12.89
13.13
13.76
14.37
14.52
13.99
12.82
11.26
9.57
7.91
6.27
4.61
2.91
1.27
-0.21
-1.51
-2.76
-4.15
-5.85
-7.91
-10.24
-12.64
-14.95
-17.02
-18.80
-20.33
-21.71
-23.17
-24.97
-27.29
-30.06
-32.94
-35.34
-36.62
-36.37
-34.52
-31.35
-27.33
-23.04
-18.97
-15.53
-12.99
-11.40
-10.59
-10.20
-9.71
-8.68
-6.85
-4.23
-1.10
2.17
5.20
7.76
9.82
11.50
12.99
14.47
16.07
17.74
19.37
20.79
21.85
22.52
22.82
22.82
22.61
22.25
21.82
21.39
21.01
20.74
20.56
20.42
20.21
19.82
19.17
18.25
17.17
16.04
14.99
14.07
13.25
12.52
11.86
11.26
10.71
10.12
9.37
8.33
6.95
5.31
3.58
1.93
0.50
-0.75
-1.91
-3.14
-4.52
-6.04
-7.65
-9.25
-10.73
-12.03
-13.11
-14.01
-14.90
-16.04
-17.69
-20.00
-22.80
-25.61
-27.77
-28.63
-27.79
-25.24
-21.32
-16.54
-11.47
-6.63
-2.39
1.05
3.70
5.76
7.61
9.57
11.85
14.40
17.00
19.42
21.48
23.21
24.70
26.07
27.36
28.56
29.66
30.73
31.90
33.30
34.96
36.72
38.36
39.61
40.37
40.69
40.64
40.16
38.93
36.38
32.00
25.62
17.58
8.71
0.03
-7.62
-13.78
-18.45
-21.88
-24.36
-26.05
-27.05
-27.55
-27.99
-29.01
-31.20
-34.72
-39.13
-43.48
-46.74
-48.26
-48.06
-46.67
-44.77
-42.69
-40.21
-36.81
-32.12
-26.31
-20.12
-14.49
-9.99
-6.58
-3.69
-0.73
2.33
4.72
5.22
2.73
-3.05
-11.51
-21.55
-32.24
-43.37
-55.41
-68.97
-84.09
-100.01
-115.39
-128.93
-139.91
-148.22
-153.88
-156.37
-154.35
-145.89
-129.39
-104.52
-72.66
-36.72
-0.22
33.75
63.27
87.77
107.71
123.85
136.73
146.48
152.84
155.61
154.87
151.08
144.96
137.28
128.66
119.49
109.95
100.14
90.18
80.21
70.37
60.58
50.42
39.22
26.37
11.68
-4.17
-19.63
-32.56
-40.98
-43.85
-41.62
-36.19
-30.21
-26.00
-24.60
-25.29
-26.06
-24.57
-19.26
-10.08
1.44
12.92
22.05
27.35
28.49
26.04
21.12
14.96
8.78
3.68
0.61
0.26
2.86
7.96
14.46
20.84
25.60
27.62
26.52
22.66
16.99
10.66
4.68
-0.42
-4.65
-8.46
-12.35
-16.58
-20.85
-24.47
-26.57
-26.55
-24.33
-20.42
-15.72
-11.17
-7.48
-5.02
-3.93
-4.13
-5.39
-7.33
-9.43
-11.19
-12.29
-12.70
-12.66
-12.45
-12.10
-11.34
-9.69
-6.76
-2.44
2.99
8.99
14.98
20.45
25.01
28.43
30.56
31.39
31.10
30.12
29.08
28.58
28.99
30.20
31.71
32.77
32.75
31.34
28.81
25.91
23.62
22.81
23.94
26.93
31.30
36.36
41.42
45.84
49.05
50.55
49.94
47.10
42.32
36.29
29.95
24.14
19.41
15.81
13.08
10.85
8.85
7.07
5.61
4.55
3.83
3.29
2.90
2.80
3.38
4.91
7.26
9.80
11.51
11.49
9.40
5.70
1.35
-2.53
-5.15
-6.13
-5.50
-3.44
-0.18
4.15
9.31
14.81
19.87
23.54
25.07
24.39
22.24
20.07
19.52
21.71
26.84
34.21
42.81
52.10
62.44
74.86
90.35
109.05
129.84
150.58
168.95
183.22
192.98
199.27
204.16
209.90
217.86
227.91
238.35
246.76
250.89
249.66
243.18
232.26
217.54
199.06
176.29
148.87
117.33
83.32
49.23
17.28
-11.15
-36.06
-58.65
-80.90
-104.78
-131.70
-162.06
-195.15
-229.64
-264.13
-297.82
-330.81
-364.02
-398.79
-436.74
-479.56
-528.78
-584.88
-646.12
-707.50
-761.06
-797.81
-810.65
-797.15
-760.51
-708.21
-649.11
-590.36
-535.84
-486.33
-441.01
-398.98
-359.83
-323.46
-289.37
-256.49
-223.56
-189.81
-155.30
-120.72
-86.98
-54.55
-23.19
7.84
39.23
71.26
103.47
134.91
164.54
191.76
216.89
241.32
267.36
297.27
332.07
370.29
407.47
437.07
452.47
449.30
426.95
388.64
340.07
287.44
235.55
186.84
141.35
97.61
54.07
10.63
-30.58
-65.22
-88.08
-95.02
-84.63
-58.65
-20.80
25.21
76.69
131.85
188.35
242.12
287.68
319.86
336.17
337.66
328.10
311.72
291.29
267.55
240.40
210.56
180.36
153.11
131.38
115.75
104.57
95.15
85.28
74.17
62.20
50.03
37.70
24.39
9.16
-8.07
-25.93
-41.95
-53.50
-59.11
-59.20
-55.98
-52.45
-51.14
-52.92
-56.69
-60.15
-61.22
-59.55
-57.05
-56.89
-61.64
-71.61
-84.38
-96.13
-103.77
-106.70
-106.95
-107.72
-111.36
-118.04
-125.70
-131.32
-132.33
-127.23
-115.53
-97.27
-73.05
-44.50
-14.41
13.60
36.15
51.15
58.32
58.92
55.02
48.70
41.77
35.61
31.27
29.30
29.72
31.98
35.27
38.88
42.48
46.14
49.99
53.87
57.23
59.45
60.13
59.37
57.74
55.96
54.52
53.30
51.75
49.23
45.45
40.64
35.34
30.05
24.96
19.98
15.10
10.69
7.38
5.69
5.51
6.02
6.18
5.34
3.69
2.16
1.82
3.30
6.47
10.68
15.17
19.43
23.22
26.40
28.64
29.41
28.11
24.47
18.74
11.68
4.34
-2.28
-7.54
-11.28
-13.79
-15.54
-16.96
-18.30
-19.62
-20.82
-21.79
-22.30
-22.07
-20.69
-17.91
-13.71
-8.64
-3.68
0.02
1.61
0.90
-1.58
-4.83
-7.91
-10.28
-11.95
-13.35
-15.00
-17.27
-20.26
-23.83
-27.55
-30.71
-32.38
-31.59
-27.68
-20.64
-11.27
-0.99
8.66
16.54
22.19
25.83
27.97
29.03
29.25
28.64
27.34
25.71
24.31
23.63
23.83
24.63
25.43
25.62
24.76
22.77
19.86
16.41
12.69
8.85
4.85
0.58
-3.95
-8.60
-13.01
-16.76
-19.58
-21.50
-22.85
-24.08
-25.51
-27.10
-28.40
-28.80
-27.79
-25.19
-21.28
-16.55
-11.54
-6.64
-2.03
2.23
6.12
9.55
12.32
14.23
15.17
15.17
14.49
13.57
12.90
12.87
13.57
14.78
16.08
17.08
17.59
17.73
17.77
18.03
18.58
19.35
20.12
20.74
21.12
21.23
21.00
20.39
19.39
18.10
16.77
15.69
15.02
14.70
14.51
14.07
13.06
11.31
8.82
5.77
2.40
-1.04
-4.31
-7.29
-9.96
-12.47
-14.99
-17.65
-20.34
-22.69
-24.18
-24.31
-22.80
-19.72
-15.42
-10.42
-5.23
-0.27
4.16
7.82
10.61
12.54
13.74
14.49
15.02
15.50
15.91
16.18
16.18
15.86
15.21
14.30
13.18
11.92
10.58
9.26
8.07
7.12
6.55
6.38
6.58
6.99
7.36
7.41
6.98
6.05
4.74
3.22
1.62
0.01
-1.62
-3.23
-4.76
-6.09
-7.15
-7.93
-8.49
-8.98
-9.48
-10.03
-10.54
-10.88
-10.97
-10.85
-10.73
-10.96
-11.90
-13.84
-16.83
-20.64
-24.70
-28.28
-30.64
-31.25
-29.98
-27.10
-23.17
-18.81
-14.46
-10.31
-6.37
-2.57
1.03
4.30
7.08
9.29
11.01
12.37
13.52
14.49
15.28
15.77
15.91
15.67
15.06
14.20
13.25
12.44
11.96
11.87
12.05
12.26
12.28
12.02
11.63
11.33
11.32
11.58
11.87
11.83
11.26
10.16
8.77
7.44
6.35
5.47
4.62
3.54
2.11
0.38
-1.48
-3.26
-4.82
-6.18
-7.42
-8.71
-10.14
-11.71
-13.30
-14.74
-15.88
-16.66
-17.21
-17.81
-18.79
-20.37
-22.61
-25.27
-27.86
-29.82
-30.63
-29.94
-27.72
-24.16
-19.68
-14.79
-10.02
-5.81
-2.47
-0.06
1.59
2.89
4.27
5.99
8.07
10.19
11.92
12.88
12.98
12.34
11.31
10.25
9.45
9.04
9.05
9.45
10.11
10.88
11.55
11.91
11.84
11.34
10.56
9.71
8.98
8.43
8.02
7.64
7.20
6.65
6.04
5.44
4.94
4.53
4.13
3.53
2.51
0.89
-1.39
-4.17
-7.17
-10.01
-12.40
-14.23
-15.65
-17.04
-18.80
-21.18
-24.07
-27.03
-29.37
-30.42
-29.76
-27.40
-23.70
-19.30
-14.84
-10.81
-7.48
-4.89
-2.94
-1.46
-0.26
0.81
1.91
3.15
4.59
6.25
8.03
9.72
11.03
11.72
11.71
11.21
10.65
10.55
11.29
12.97
15.38
18.08
20.60
22.60
23.92
24.53
24.47
23.77
22.43
20.48
17.98
15.08
11.99
8.99
6.31
4.11
2.37
0.95
-0.32
-1.61
-2.97
-4.42
-5.94
-7.59
-9.44
-11.56
-13.86
-16.06
-17.79
-18.78
-19.08
-19.06
-19.31
-20.36
-22.39
-25.17
-28.09
-30.45
-31.63
-31.29
-29.47
-26.43
-22.66
-18.69
-14.96
-11.74
-9.02
-6.58
-4.04
-1.14
2.17
5.64
8.84
11.31
12.76
13.12
12.61
11.60
10.55
9.93
10.07
11.09
12.81
14.84
16.70
18.01
18.60
18.57
18.16
17.65
17.21
16.91
16.70
16.48
16.13
15.52
14.57
13.30
11.82
10.33
8.97
7.83
6.91
6.17
5.58
5.15
4.85
4.55
3.98
2.88
1.05
-1.50
-4.55
-7.74
-10.63
-12.89
-14.37
-15.19
-15.76
-16.58
-18.08
-20.28
-22.78
-24.77
-25.45
-24.34
-21.53
-17.63
-13.47
-9.72
-6.73
-4.54
-3.01
-2.00
-1.34
-0.88
-0.44
0.19
1.08
2.09
2.89
3.14
2.70
1.80
0.91
0.51
0.80
1.54
2.21
2.35
1.82
0.93
0.26
0.34
1.29
2.89
4.66
6.14
7.11
7.60
7.73
7.59
7.23
6.63
5.79
4.74
3.51
2.13
0.59
-1.11
-2.91
-4.69
-6.34
-7.77
-9.00
-10.17
-11.54
-13.35
-15.75
-18.63
-21.58
-23.92
-24.93
-24.09
-21.31
-17.01
-11.93
-6.88
-2.49
0.96
3.49
5.30
6.60
7.55
8.21
8.63
8.85
8.93
8.92
8.84
8.65
8.30
7.78
7.18
6.69
6.55
6.92
7.83
9.10
10.41
11.40
11.89
11.88
11.61
11.32
11.18
11.14
10.99
10.53
9.65
8.50
7.36
6.49
5.99
5.66
5.10
3.93
1.97
-0.67
-3.68
-6.64
-9.24
-11.30
-12.78
-13.68
-14.05
-14.05
-13.98
-14.27
-15.30
-17.24
-19.90
-22.67
-24.81
-25.65
-24.90
-22.67
-19.40
-15.65
-11.93
-8.55
-5.66
-3.25
-1.22
0.57
2.36
4.31
6.48
8.75
10.88
12.57
13.63
14.11
14.22
14.24
14.40
14.71
15.07
15.32
15.36
15.22
15.02
14.93
14.96
15.07
15.07
14.77
14.09
13.07
11.89
10.78
9.86
9.15
8.49
7.75
6.83
5.77
4.70
3.75
2.94
2.25
1.59
0.85
0.01
-0.98
-2.14
-3.47
-4.96
-6.54
-8.14
-9.66
-11.08
-12.45
-13.89
-15.49
-17.39
-19.61
-22.17
-24.92
-27.60
-29.78
-30.97
-30.82
-29.22
-26.38
-22.76
-18.83
-14.97
-11.38
-8.10
-5.11
-2.43
-0.09
1.89
3.57
5.05
6.43
7.79
9.09
10.25
11.18
11.86
12.27
12.45
12.41
12.18
11.81
11.39
11.02
10.84
10.86
11.01
11.12
11.00
10.55
9.86
9.17
8.72
8.64
8.85
9.07
8.97
8.32
7.13
5.59
3.97
2.48
1.15
-0.08
-1.32
-2.64
-3.98
-5.27
-6.45
-7.53
-8.64
-9.96
-11.61
-13.65
-16.05
-18.63
-21.12
-23.17
-24.44
-24.65
-23.73
-21.78
-19.07
-15.87
-12.42
-8.91
-5.47
-2.23
0.65
3.09
5.09
6.74
8.22
9.61
10.89
11.93
12.62
12.90
12.86
12.69
12.61
12.73
13.07
13.48
13.79
13.84
13.60
13.11
12.54
12.02
11.65
11.41
11.14
10.72
10.04
9.18
8.27
7.45
6.79
6.19
5.52
4.66
3.59
2.38
1.18
0.08
-0.94
-1.98
-3.17
-4.55
-6.06
-7.56
-8.93
-10.10
-11.13
-12.11
-13.17
-14.37
-15.74
-17.32
-19.11
-21.08
-23.12
-25.00
-26.34
-26.78
-26.09
-24.25
-21.50
-18.18
-14.63
-11.10
-7.72
-4.59
-1.74
0.77
2.91
4.76
6.41
7.95
9.40
10.68
11.68
12.32
12.56
12.48
12.17
11.77
11.43
11.34
11.62
12.31
13.28
14.24
14.85
14.90
14.43
13.68
12.98
12.51
12.23
11.93
11.36
10.46
9.35
8.26
7.37
6.72
6.22
5.72
5.11
4.38
3.59
2.79
2.03
1.25
0.36
-0.76
-2.21
-3.96
-5.92
-7.90
-9.75
-11.37
-12.82
-14.19
-15.57
-17.04
-18.62
-20.36
-22.26
-24.20
-25.93
-27.05
-27.15
-25.98
-23.57
-20.22
-16.40
-12.52
-8.87
-5.55
-2.58
0.09
2.49
4.66
6.61
8.31
9.66
10.57
11.02
11.11
11.01
10.91
10.91
11.04
11.25
11.52
11.87
12.28
12.70
12.98
12.97
12.59
11.92
11.12
10.42
9.92
9.65
9.53
9.39
9.12
8.58
7.71
6.49
5.03
3.45
1.91
0.48
-0.88
-2.19
-3.49
-4.73
-5.85
-6.84
-7.79
-8.84
-10.11
-11.65
-13.36
-15.18
-17.10
-19.16
-21.30
-23.29
-24.68
-25.00
-23.98
-21.72
-18.67
-15.37
-12.23
-9.33
-6.48
-3.46
-0.22
3.07
6.09
8.56
10.30
11.34
11.76
11.71
11.35
10.88
10.46
10.28
10.37
10.68
11.05
11.38
11.60
11.74
11.92
12.19
12.55
12.91
13.17
13.22
12.96
12.39
11.55
10.56
9.60
8.74
8.00
7.29
6.48
5.45
4.23
2.93
1.67
0.55
-0.44
-1.40
-2.41
-3.54
-4.79
-6.06
-7.28
-8.39
-9.40
-10.44
-11.58
-12.90
-14.37
-15.96
-17.65
-19.49
-21.53
-23.78
-26.05
-27.95
-28.99
-28.78
-27.19
-24.39
-20.77
-16.76
-12.71
-8.84
-5.26
-2.02
0.83
3.29
5.40
7.19
8.73
9.99
10.94
11.51
11.71
11.61
11.34
11.07
10.96
11.15
11.72
12.66
13.90
15.23
16.48
17.48
18.17
18.53
18.59
18.36
17.83
16.99
15.90
14.69
13.49
12.42
11.49
10.62
9.69
8.61
7.35
5.93
4.44
3.00
1.70
0.61
-0.29
-1.06
-1.84
-2.77
-3.96
-5.43
-7.15
-8.99
-10.77
-12.34
-13.64
-14.69
-15.66
-16.80
-18.34
-20.41
-22.89
-25.47
-27.69
-29.10
-29.42
-28.54
-26.57
-23.74
-20.35
-16.65
-12.86
-9.16
-5.67
-2.50
0.29
2.69
4.78
6.69
8.57
10.44
12.25
13.82
14.94
15.48
15.43
14.94
14.24
13.55
12.99
12.64
12.54
12.70
13.15
13.83
14.60
15.26
15.63
15.62
15.20
14.46
13.46
12.30
11.07
9.88
8.83
7.96
7.21
6.43
5.50
4.38
3.14
1.94
0.87
-0.10
-1.13
-2.38
-3.89
-5.56
-7.19
-8.59
-9.72
-10.69
-11.66
-12.79
-14.16
-15.80
-17.67
-19.74
-21.87
-23.81
-25.18
-25.58
-24.74
-22.62
-19.46
-15.68
-11.72
-7.90
-4.41
-1.28
1.48
3.87
5.86
7.41
8.59
9.51
10.37
11.29
12.32
13.32
14.12
14.56
14.61
14.39
14.12
13.99
14.12
14.47
14.95
15.42
15.80
16.01
16.01
15.74
15.19
14.37
13.34
12.20
10.98
9.70
8.35
6.91
5.39
3.84
2.33
0.93
-0.31
-1.34
-2.15
-2.81
-3.41
-4.14
-5.15
-6.51
-8.15
-9.89
-11.53
-12.93
-14.10
-15.18
-16.36
-17.78
-19.46
-21.36
-23.31
-25.16
-26.70
-27.72
-28.03
-27.45
-25.92
-23.48
-20.29
-16.62
-12.79
-9.06
-5.61
-2.50
0.29
2.81
5.11
7.16
8.94
10.41
11.56
12.39
12.91
13.12
13.08
12.89
12.71
12.71
12.95
13.34
13.63
13.58
13.10
12.30
11.49
10.99
10.99
11.41
12.03
12.52
12.69
12.46
11.91
11.16
10.33
9.42
8.43
7.32
6.15
4.99
3.94
3.03
2.22
1.37
0.37
-0.86
-2.28
-3.78
-5.26
-6.67
-8.04
-9.44
-10.91
-12.47
-14.10
-15.79
-17.55
-19.42
-21.38
-23.33
-25.08
-26.39
-27.00
-26.74
-25.50
-23.29
-20.23
-16.53
-12.51
-8.53
-4.90
-1.85
0.56
2.43
3.91
5.20
6.48
7.87
9.41
11.00
12.46
13.52
13.94
13.65
12.78
11.66
10.64
10.02
9.91
10.26
10.96
11.88
12.87
13.80
14.50
14.82
14.71
14.21
13.47
12.60
11.66
10.59
9.30
7.76
6.02
4.29
2.69
1.24
-0.23
-2.01
-4.34
-7.29
-10.69
-14.22
-17.50
-20.26
-22.38
-23.80
-24.46
-24.28
-23.25
-21.60
-19.85
-18.68
-18.68
-19.97
-22.08
-24.09
-24.98
-24.14
-21.48
-17.51
-12.95
-8.43
-4.29
-0.59
2.73
5.71
8.34
10.56
12.39
13.91
15.22
16.36
17.31
18.02
18.50
18.82
19.13
19.55
20.16
21.04
22.21
23.69
25.43
27.24
28.82
29.77
29.76
28.71
26.81
24.43
22.00
19.85
18.13
16.82
15.86
15.16
14.65
14.25
13.88
13.52
13.13
12.71
12.18
11.40
10.14
8.19
5.42
1.87
-2.29
-6.76
-11.26
-15.55
-19.54
-23.30
-26.98
-30.75
-34.65
-38.47
-41.79
-44.08
-44.93
-44.20
-42.07
-38.89
-35.06
-30.87
-26.48
-22.02
-17.65
-13.57
-9.97
-6.96
-4.50
-2.50
-0.85
0.48
1.45
2.01
2.16
1.96
1.55
1.07
0.63
0.32
0.20
0.32
0.76
1.47
2.33
3.09
3.55
3.58
3.25
2.80
2.47
2.44
2.60
2.64
2.14
0.80
-1.31
-3.72
-5.69
-6.38
-5.16
-1.80
3.53
10.32
17.92
25.61
32.76
38.81
43.30
46.00
46.87
46.17
44.28
41.56
38.23
34.31
29.61
23.89
17.04
9.22
0.91
-7.15
-14.16
-19.49
-22.91
-24.55
-24.83
-24.21
-23.01
-21.39
-19.41
-17.20
-14.94
-12.82
-10.93
-9.17
-7.38
-5.48
-3.56
-1.83
-0.47
0.46
1.09
1.61
2.17
2.80
3.46
4.07
4.58
4.99
5.35
5.65
5.91
6.07
6.08
5.90
5.50
4.93
4.29
3.76
3.48
3.46
3.60
3.71
3.59
3.16
2.40
1.36
0.14
-1.16
-2.37
-3.35
-3.97
-4.27
-4.46
-4.86
-5.72
-7.11
-8.88
-10.74
-12.42
-13.75
-14.74
-15.55
-16.34
-17.35
-18.71
-20.45
-22.41
-24.25
-25.51
-25.74
-24.68
-22.29
-18.80
-14.59
-10.08
-5.66
-1.64
1.84
4.71
7.06
9.01
10.66
12.04
13.08
13.73
14.00
14.02
13.91
13.71
13.37
12.78
11.92
10.96
10.18
9.82
9.92
10.32
10.79
11.17
11.44
11.74
12.15
12.63
13.01
13.10
12.79
12.11
11.13
9.89
8.42
6.75
5.01
3.40
2.08
1.08
0.22
-0.71
-1.89
-3.30
-4.78
-6.13
-7.24
-8.14
-8.97
-9.90
-11.06
-12.51
-14.22
-16.07
-17.82
-19.14
-19.65
-19.02
-17.11
-13.96
-9.76
-4.77
0.82
6.83
13.05
19.20
24.94
29.97
34.13
37.48
40.33
43.07
45.98
49.12
52.30
55.25
57.70
59.56
60.90
61.84
62.53
63.10
63.65
64.35
65.47
67.20
69.54
72.11
74.18
74.91
73.57
69.83
63.72
55.50
45.48
34.02
21.48
8.34
-4.75
-17.12
-28.16
-37.61
-45.58
-52.58
-59.41
-66.79
-75.14
-84.23
-93.22
-101.10
-107.24
-111.88
-116.14
-121.52
-128.95
-138.18
-147.70
-155.41
-159.57
-159.51
-155.68
-149.17
-140.93
-131.29
-119.92
-106.31
-90.33
-72.57
-54.31
-37.18
-22.64
-11.53
-3.89
0.88
3.63
5.18
6.14
6.95
8.04
9.82
12.55
16.07
19.70
22.47
23.64
23.13
21.68
20.53
20.80
22.93
26.47
30.39
33.60
35.44
35.82
35.03
33.55
31.80
30.16
29.07
29.00
30.34
33.21
37.30
41.92
46.28
49.81
52.41
54.42
56.39
58.74
61.41
63.87
65.34
65.34
63.86
61.43
58.80
56.46
54.44
52.36
49.89
46.99
43.93
40.99
38.16
35.07
31.34
26.90
22.17
17.76
14.05
10.92
7.77
3.91
-1.04
-7.19
-14.36
-22.35
-30.91
-39.70
-48.20
-55.80
-61.95
-66.27
-68.47
-68.09
-64.62
-57.72
-47.78
-36.09
-24.56
-14.96
-8.12
-3.77
-0.98
0.99
2.13
1.74
-0.83
-5.32
-10.26
-13.53
-13.38
-9.38
-2.74
4.35
9.75
12.30
12.14
10.23
7.58
4.61
0.93
-4.34
-12.01
-22.35
-35.01
-49.12
-63.64
-77.54
-89.87
-99.78
-106.57
-109.75
-109.25
-105.63
-100.22
-95.04
-92.38
-93.95
-99.92
-108.24
-114.86
-114.78
-103.76
-79.97
-44.64
-1.48
44.76
89.85
130.94
166.50
195.68
217.62
231.36
235.97
231.02
216.89
194.73
166.36
134.23
101.25
70.61
45.08
26.21
13.77
5.78
-0.56
-7.53
-15.84
-24.34
-30.63
-32.31
-28.11
-18.47
-5.46
7.97
18.93
25.37
26.43
22.41
14.30
3.35
-9.41
-23.36
-38.19
-53.49
-68.32
-81.21
-90.47
-94.91
-94.54
-90.84
-86.36
-83.65
-84.34
-88.60
-95.32
-102.87
-109.80
-114.97
-117.18
-114.70
-105.30
-87.11
-59.82
-25.52
11.54
46.31
74.64
94.63
106.83
113.60
117.73
121.41
125.63
130.23
134.36
137.05
137.44
134.95
129.15
119.69
106.33
89.29
69.51
48.76
29.11
12.17
-1.62
-12.96
-23.03
-32.40
-40.31
-44.78
-43.65
-35.86
-22.14
-5.02
12.17
26.50
36.35
41.56
43.20
42.96
42.45
42.70
43.90
45.32
45.89
44.92
42.66
40.36
39.67
41.63
45.92
50.67
53.14
50.85
42.64
29.09
12.31
-4.85
-19.67
-30.28
-36.00
-37.18
-34.92
-30.56
-25.26
-19.98
-15.50
-12.67
-12.37
-15.15
-20.73
-27.79
-34.12
-37.51
-36.71
-32.14
-25.78
-20.24
-17.58
-18.29
-21.21
-24.23
-25.41
-23.95
-20.42
-16.28
-13.05
-11.59
-11.88
-13.29
-15.04
-16.50
-17.28
-16.99
-15.20
-11.68
-6.62
-0.89
4.23
7.50
8.36
7.06
4.50
1.61
-1.11
-3.73
-6.64
-10.12
-13.99
-17.66
-20.50
-22.30
-23.40
-24.48
-26.09
-28.29
-30.54
-32.08
-32.41
-31.65
-30.53
-30.05
-30.94
-33.26
-36.21
-38.47
-38.70
-36.18
-31.13
-24.62
-18.13
-12.88
-9.41
-7.44
-6.08
-4.44
-1.97
1.36
5.13
8.87
12.24
15.16
17.76
20.20
22.51
24.53
25.94
26.37
25.60
23.71
21.18
18.76
17.27
17.31
19.05
22.14
25.84
29.28
31.71
32.75
32.44
31.16
29.46
27.84
26.54
25.46
24.09
21.73
17.72
11.81
4.40
-3.50
-10.63
-16.08
-19.67
-22.01
-24.05
-26.44
-29.13
-31.48
-32.78
-32.85
-32.17
-31.59
-31.78
-32.84
-34.31
-35.60
-36.39
-36.76
-36.95
-36.99
-36.50
-34.86
-31.61
-26.72
-20.74
-14.44
-8.58
-3.60
0.33
3.18
5.05
6.12
6.77
7.46
8.63
10.53
13.07
15.86
18.41
20.29
21.26
21.28
20.47
19.03
17.23
15.42
14.00
13.33
13.65
14.85
16.43
17.59
17.52
15.78
12.59
8.78
5.47
3.56
3.19
3.77
4.19
3.47
1.10
-2.71
-7.27
-11.78
-15.56
-18.18
-19.47
-19.50
-18.57
-17.19
-15.86
-14.95
-14.43
-13.90
-12.80
-10.60
-7.19
-2.97
1.21
4.29
5.33
3.91
0.26
-4.73
-9.85
-13.96
-16.40
-17.02
-16.09
-13.91
-10.62
-6.20
-0.78
5.09
10.44
14.18
15.59
14.73
12.37
9.62
7.37
5.90
4.89
3.73
2.02
-0.23
-2.63
-4.63
-5.72
-5.50
-3.57
0.38
6.50
14.42
23.18
31.37
37.45
40.22
39.10
34.12
25.78
14.83
2.20
-10.96
-23.38
-33.97
-42.11
-47.90
-52.05
-55.54
-59.08
-62.85
-66.46
-69.28
-70.75
-70.71
-69.29
-66.86
-63.55
-59.14
-53.16
-45.27
-35.64
-25.15
-15.10
-6.66
-0.39
3.84
6.49
7.90
8.04
6.76
4.36
1.98
1.53
4.93
13.18
25.68
40.24
53.92
64.21
70.04
72.10
72.36
72.93
74.97
78.15
80.90
81.38
78.52
72.60
65.13
57.97
52.41
48.67
46.02
43.45
40.31
36.60
32.74
29.25
26.42
24.20
22.35
20.58
18.68
16.54
14.20
11.86
9.89
8.74
8.65
9.47
10.50
10.71
9.20
5.65
0.51
-5.23
-10.59
-15.09
-18.83
-22.22
-25.60
-28.95
-32.02
-34.49
-36.34
-37.70
-38.70
-39.12
-38.52
-36.44
-32.77
-27.96
-22.78
-18.04
-14.26
-11.55
-9.76
-8.69
-8.10
-7.74
-7.23
-6.22
-4.55
-2.42
-0.47
0.57
0.29
-1.03
-2.34
-2.30
0.09
4.84
10.80
15.98
18.46
17.24
12.74
6.58
0.82
-2.91
-4.01
-2.89
-0.50
2.20
4.63
6.55
7.89
8.49
8.21
6.97
4.92
2.46
0.10
-1.60
-2.31
-1.94
-0.82
0.41
0.93
0.12
-2.16
-5.39
-8.70
-11.28
-12.83
-13.66
-14.52
-16.13
-18.82
-22.31
-25.91
-28.77
-30.33
-30.41
-29.20
-27.08
-24.41
-21.27
-17.56
-13.13
-8.03
-2.73
2.07
5.67
7.81
8.75
9.16
9.74
10.83
12.40
14.12
15.74
17.15
18.39
19.47
20.31
20.83
21.08
21.33
21.85
22.78
23.92
24.92
25.51
25.67
25.50
25.04
23.98
21.84
18.37
13.89
9.33
5.80
3.91
3.41
3.30
2.43
0.10
-3.62
-8.06
-12.42
-16.12
-18.97
-21.00
-22.26
-22.71
-22.24
-20.93
-19.22
-18.01
-18.40
-21.27
-26.91
-34.70
-43.22
-50.79
-56.11
-58.78
-59.30
-58.71
-57.94
-57.43
-57.21
-57.20
-57.59
-58.73
-60.76
-63.16
-64.52
-63.00
-57.32
-47.68
-36.07
-25.73
-19.79
-20.00
-25.99
-35.48
-45.37
-52.86
-56.15
-54.47
-47.59
-35.37
-17.81
4.54
30.03
55.75
77.98
93.16
98.81
94.23
80.64
60.87
38.75
18.65
5.04
1.99
12.34
36.56
71.89
112.35
149.91
176.74
187.76
182.23
163.90
139.26
114.83
94.79
79.96
68.50
57.74
46.00
33.46
21.70
12.33
5.71
0.63
-4.98
-12.58
-21.84
-30.63
-36.12
-36.47
-32.18
-26.03
-21.79
-22.35
-28.15
-37.10
-45.54
-50.04
-48.65
-41.56
-30.70
-18.90
-9.11
-3.76
-4.36
-10.91
-21.46
-32.01
-37.51
-33.74
-19.35
3.35
29.39
53.44
71.81
83.14
87.45
84.96
75.55
59.61
39.02
17.12
-2.65
-19.02
-34.27
-53.01
-78.67
-110.11
-140.59
-160.58
-162.96
-147.01
-119.16
-89.43
-66.24
-52.13
-43.21
-32.14
-12.84
16.17
52.26
91.45
131.67
173.82
220.32
271.99
325.57
373.45
405.58
414.62
399.22
364.60
319.92
274.39
234.00
200.19
170.34
138.47
100.40
55.70
7.76
-38.65
-79.80
-114.04
-142.24
-167.33
-195.37
-230.46
-273.77
-323.99
-380.05
-441.27
-505.46
-567.67
-620.32
-658.11
-675.45
-668.23
-634.76
-578.18
-504.70
-419.82
-327.25
-211.67
-75.60
62.99
180.61
264.27
314.02
342.96
364.96
388.40
416.62
445.83
472.79
489.31
492.76
481.18
442.24
373.30
284.23
193.26
114.48
56.02
16.70
-6.66
-17.65
-21.20
-21.94
-24.62
-29.79
-40.03
-55.26
-72.91
-88.47
-98.92
-102.68
-97.62
-82.10
-56.55
-26.22
1.53
19.82
25.91
21.49
11.54
2.29
-2.98
-5.70
-11.27
-24.31
-45.51
-70.70
-93.73
-109.72
-116.73
-116.18
-111.14
-104.40
-96.77
-87.65
-76.07
-62.23
-47.87
-35.35
-26.50
-21.78
-20.39
-20.66
-21.02
-20.55
-19.19
-17.56
-16.38
-16.06
-16.49
-17.26
-17.73
-17.40
-16.01
-13.60
-10.48
-7.16
-4.20
-2.03
-0.79
-0.31
-0.14
0.21
0.96
1.92
2.69
3.01
3.07
3.57
5.34
8.92
14.07
19.91
25.22
29.06
31.07
31.41
30.51
28.74
26.33
23.48
20.55
17.99
16.20
15.26
14.92
14.73
14.32
13.65
12.93
12.53
12.69
13.52
15.01
17.10
19.74
22.67
25.42
27.29
27.59
25.91
22.39
17.64
12.53
7.80
3.88
0.77
-1.79
-4.14
-6.53
-9.01
-11.53
-13.91
-15.99
-17.65
-18.85
-19.63
-20.11
-20.47
-20.94
-21.77
-23.18
-25.26
-27.93
-30.79
-33.24
-34.60
-34.36
-32.34
-28.73
-24.00
-18.64
-13.10
-7.73
-2.81
1.37
4.57
6.73
8.01
8.79
9.55
10.58
11.96
13.48
14.77
15.51
15.48
14.68
13.24
11.38
9.34
7.37
5.68
4.41
3.58
2.96
2.21
0.86
-1.39
-4.57
-8.32
-12.00
-14.96
-16.84
-17.77
-18.22
-18.86
-20.06
-21.64
-22.74
-22.14
-18.59
-11.21
0.13
14.71
30.90
46.50
59.13
66.87
68.73
65.08
57.81
49.81
44.26
43.45
48.23
57.95
71.15
86.36
102.64
119.57
137.06
154.97
172.98
190.40
206.06
218.12
223.74
219.19
200.72
166.39
117.31
57.86
-5.45
-65.70
-117.35
-157.25
-184.77
-201.34
-209.14
-210.71
-209.15
-207.89
-209.94
-216.96
-228.84
-243.89
-259.53
-272.57
-280.32
-282.01
-279.04
-273.82
-267.83
-260.73
-250.40
-234.28
-209.70
-175.01
-130.49
-78.02
-19.79
42.77
108.78
176.93
237.49
276.70
285.34
264.62
224.92
180.70
145.41
127.14
125.88
134.16
141.99
141.96
131.90
114.75
95.85
79.11
64.96
50.87
34.54
17.30
4.13
0.30
7.66
23.22
40.52
53.08
56.26
48.93
33.90
16.32
1.26
-8.37
-12.39
-12.78
-12.35
-13.53
-17.14
-22.03
-25.81
-26.42
-23.14
-16.83
-9.31
-2.40
2.66
5.62
7.03
7.73
8.46
9.73
11.85
14.59
17.63
20.52
22.92
24.75
26.30
27.95
29.99
32.29
34.13
34.07
30.74
23.49
12.36
-2.31
-20.11
-40.11
-60.33
-77.62
-89.01
-92.71
-89.20
-81.17
-72.39
-65.92
-62.69
-61.49
-57.25
-47.57
-34.01
-20.85
-11.29
-5.52
-1.65
2.26
6.99
12.22
16.86
20.43
23.15
25.38
27.06
27.52
26.15
23.04
19.15
15.34
12.34
10.51
9.89
10.45
12.19
15.40
20.48
27.76
36.52
45.69
54.11
60.83
65.42
68.09
69.71
71.66
75.42
82.01
91.96
105.14
120.95
138.38
156.21
173.20
188.36
201.09
211.23
219.25
226.21
233.42
241.75
250.76
258.04
259.33
249.71
225.24
184.82
130.72
67.92
2.32
-61.39
-121.16
-177.68
-233.61
-292.33
-356.59
-427.27
-502.34
-576.40
-641.32
-688.18
-710.09
-704.66
-674.74
-627.10
-569.57
-508.14
-445.54
-381.55
-314.61
-243.67
-169.25
-93.67
-20.44
46.69
104.70
152.12
189.34
218.28
241.37
260.40
275.77
286.62
291.65
290.17
282.68
270.72
256.16
240.39
223.95
206.66
188.00
167.49
144.87
120.26
94.21
67.72
42.20
19.35
0.71
-12.71
-20.72
-23.97
-23.70
-21.38
-18.36
-15.74
-14.43
-15.14
-18.34
-24.09
-31.93
-40.80
-49.35
-56.21
-60.39
-61.44
-59.54
-55.36
-49.90
-44.16
-38.80
-33.95
-29.25
-24.12
-18.05
-10.88
-2.86
5.55
13.89
21.95
29.70
37.25
44.62
51.73
58.38
64.30
69.26
73.10
75.78
77.33
77.78
77.12
75.29
72.31
68.34
63.80
59.21
55.02
51.43
48.31
45.39
42.45
39.51
36.70
34.24
32.13
30.25
28.38
26.42
24.41
22.53
20.92
19.57
18.31
16.91
15.30
13.62
12.13
11.04
10.36
9.84
9.06
7.70
5.60
2.92
-0.02
-2.84
-5.21
-6.97
-8.02
-8.33
-8.01
-7.21
-6.04
-4.63
-3.01
-1.12
1.15
3.89
6.94
9.75
11.66
12.13
10.98
8.45
5.09
1.45
-2.09
-5.38
-8.62
-11.78
-14.50
-16.27
-16.66
-15.46
-12.52
-7.36
0.53
10.91
23.06
35.60
46.28
52.68
53.25
48.04
39.22
29.59
20.26
11.41
2.59
-7.29
-18.96
-32.19
-45.78
-57.34
-65.00
-69.57
-71.80
-71.39
-67.92
-60.95
-50.48
-37.18
-21.03
-2.18
17.24
36.36
55.63
74.53
91.15
102.74
99.85
78.06
51.98
30.84
15.97
8.51
7.25
9.25
11.40
11.77
11.21
11.45
11.72
11.34
10.34
8.54
5.97
3.09
0.48
-0.63
0.26
1.19
0.68
-1.43
-4.87
-9.11
-13.50
-17.51
-20.25
-21.16
-21.18
-21.10
-21.21
-21.86
-23.24
-25.23
-27.37
-28.71
-28.40
-26.58
-23.69
-20.25
-16.91
-14.16
-12.18
-10.84
-9.76
-8.62
-7.45
-6.40
-5.60
-5.27
-5.52
-6.38
-7.64
-8.92
-9.74
-9.76
-8.95
-7.57
-6.10
-4.97
-4.43
-4.50
-5.09
-6.17
-7.79
-9.98
-12.61
-15.39
-17.90
-19.85
-21.18
-22.03
-22.59
-22.85
-22.65
-21.73
-19.92
-17.28
-14.01
-10.41
-6.63
-2.78
1.13
4.98
8.58
11.63
13.88
15.16
15.50
15.07
14.16
13.10
12.14
11.35
10.58
9.49
7.78
5.34
2.45
-0.36
-2.48
-3.58
-3.73
-3.42
-3.28
-3.79
-5.05
-6.79
-8.58
-10.06
-11.11
-11.86
-12.57
-13.41
-14.39
-15.41
-16.29
-16.92
-17.26
-17.29
-16.95
-16.13
-14.67
-12.50
-9.67
-6.39
-2.99
0.18
2.81
4.76
5.98
6.56
6.65
6.40
5.99
5.55
5.17
4.88
4.62
4.31
3.82
3.03
1.94
0.62
-0.79
-2.12
-3.28
-4.21
-4.94
-5.44
-5.69
-5.63
-5.13
-4.07
-2.31
0.25
3.56
7.43
11.51
15.45
18.95
21.97
24.61
27.09
29.58
32.07
34.34
36.08
37.01
36.95
35.92
34.05
31.53
28.46
24.83
20.56
15.60
10.08
4.38
-0.97
-5.49
-8.95
-11.55
-13.78
-16.14
-18.88
-21.85
-24.65
-26.93
-28.69
-30.24
-32.03
-34.29
-36.90
-39.46
-41.58
-43.19
-44.60
-46.33
-48.67
-51.48
-54.12
-55.70
-55.52
-53.32
-49.30
-43.99
-37.94
-31.49
-24.80
-17.93
-11.01
-4.33
1.69
6.61
10.15
12.26
13.12
13.04
12.35
11.34
10.18
8.96
7.66
6.23
4.60
2.76
0.83
-0.98
-2.37
-3.14
-3.20
-2.65
-1.71
-0.65
0.29
0.92
1.13
0.91
0.26
-0.79
-2.18
-3.80
-5.50
-7.04
-8.14
-8.49
-7.87
-6.20
-3.60
-0.36
3.13
6.47
9.32
11.48
12.88
13.57
13.66
13.30
12.63
11.75
10.74
9.68
8.67
7.85
7.34
7.16
7.26
7.55
7.98
8.54
9.30
10.27
11.35
12.36
13.09
13.40
13.27
12.80
12.09
11.20
10.07
8.58
6.61
4.19
1.49
-1.11
-3.15
-4.15
-3.79
-2.01
0.96
4.68
8.58
12.12
14.91
16.72
17.55
17.60
17.18
16.64
16.27
16.08
15.83
15.08
13.43
10.72
7.14
3.22
-0.36
-3.03
-4.61
-5.24
-5.34
-5.32
-5.49
-6.03
-6.93
-8.09
-9.35
-10.72
-12.34
-14.45
-17.22
-20.62
-24.47
-28.19
-30.94
-31.84
-30.66
-27.71
-23.83
-19.82
-16.09
-12.68
-9.17
-5.00
0.20
5.93
11.41
15.95
19.41
22.21
24.63
26.75
28.48
30.04
31.64
33.92
37.25
41.05
45.58
48.79
47.66
38.86
24.38
7.85
-5.55
-12.57
-12.70
-7.77
-0.99
4.30
6.09
4.41
0.35
-4.47
-8.42
-11.15
-12.68
-13.18
-13.21
-13.18
-12.78
-11.73
-10.09
-7.50
-4.84
-2.30
1.20
6.07
12.19
19.68
28.57
38.43
49.77
60.63
68.96
73.33
70.32
55.65
26.50
-17.62
-75.01
-140.56
-211.75
-287.09
-352.30
-393.02
-402.38
-382.80
-340.62
-294.64
-241.23
-177.76
-105.69
-28.86
49.36
121.28
181.11
226.10
255.28
270.60
272.10
261.52
243.35
222.25
201.54
184.01
171.34
163.36
159.68
157.04
152.69
145.83
136.61
125.12
112.47
99.97
88.12
77.23
66.07
54.24
42.50
31.37
19.49
5.27
-11.81
-30.48
-47.56
-59.94
-65.90
-66.46
-61.64
-54.39
-47.88
-42.34
-34.68
-21.69
-3.36
16.50
32.70
41.98
44.16
41.38
38.27
37.79
39.45
40.76
38.57
30.25
14.59
-8.80
-39.34
-74.99
-107.25
-127.85
-129.10
-106.87
-63.14
-6.62
49.49
91.84
112.25
109.44
87.35
52.64
11.41
-32.39
-76.47
-118.49
-156.13
-186.23
-206.85
-219.24
-227.18
-235.70
-248.69
-267.15
-287.87
-308.17
-324.48
-335.49
-343.10
-350.90
-361.92
-376.25
-390.11
-394.50
-385.11
-357.94
-313.62
-257.20
-195.70
-135.10
-78.15
-23.92
34.58
96.42
162.03
228.48
289.98
339.94
373.12
387.41
384.72
375.75
363.96
358.60
367.35
394.17
437.82
491.75
545.83
558.35
559.05
540.26
505.06
459.21
407.92
353.43
295.00
231.02
161.62
94.56
29.49
-29.43
-80.14
-122.58
-156.96
-182.15
-195.69
-195.87
-180.63
-160.10
-143.17
-137.51
-145.92
-165.19
-188.05
-206.57
-215.19
-209.19
-191.09
-162.30
-125.03
-82.73
-40.22
-2.91
25.02
42.33
52.40
58.49
64.93
73.86
84.41
93.26
96.37
90.43
73.83
47.10
11.37
-30.87
-76.46
-121.65
-161.94
-192.22
-207.65
-205.05
-184.50
-149.97
-108.51
-67.91
-33.89
-8.37
10.31
25.30
38.83
50.66
58.22
58.44
49.48
31.96
8.87
-15.43
-36.19
-49.09
-50.76
-39.39
-15.37
18.37
56.60
93.24
123.02
143.23
154.19
158.48
159.44
159.75
161.12
164.76
172.35
186.33
209.05
241.23
280.40
320.81
354.73
375.09
377.84
363.06
334.37
297.00
255.79
213.86
172.69
132.87
94.98
60.06
29.19
2.80
-19.86
-40.87
-63.20
-89.97
-123.37
-163.71
-208.75
-253.87
-293.05
-320.82
-334.10
-333.29
-321.95
-305.24
-287.95
-273.05
-261.54
-253.08
-247.08
-243.19
-241.22
-240.57
-239.91
-237.30
-230.90
-219.71
-203.94
-184.93
-164.79
-145.54
-128.44
-113.64
-100.37
-87.53
-74.43
-61.07
-48.03
-35.86
-24.44
-12.89
-0.00
14.92
31.39
47.66
61.27
69.93
72.40
68.80
60.49
49.43
37.51
26.04
15.58
6.15
-2.50
-10.43
-17.51
-23.60
-28.80
-33.71
-39.30
-46.50
-55.68
-66.38
-77.31
-86.83
-93.48
-96.43
-95.56
-91.20
-83.79
-73.62
-61.00
-46.45
-30.95
-15.85
-2.35
8.88
18.12
26.30
34.50
43.34
52.88
62.57
71.71
79.73
86.31
91.31
94.44
95.28
93.42
88.88
82.10
73.86
64.96
56.13
48.02
41.20
36.01
32.15
28.55
23.22
13.59
-2.42
-25.40
-53.88
-84.92
-115.03
-141.44
-162.14
-176.78
-186.91
-195.41
-205.23
-218.09
-233.90
-250.67
-265.05
-272.07
-267.83
-251.50
-225.57
-194.11
-160.54
-126.77
-93.03
-58.57
-20.20
24.37
74.44
126.08
174.06
214.30
244.29
263.28
272.34
277.36
285.64
302.76
330.89
369.04
414.66
463.37
510.72
534.57
518.71
463.40
385.95
306.24
235.00
175.00
124.55
82.23
47.64
23.39
10.85
7.23
7.86
8.40
7.58
3.92
-3.48
-15.52
-30.91
-48.60
-69.38
-92.20
-116.43
-140.16
-164.55
-191.60
-223.09
-258.24
-295.49
-334.09
-374.81
-419.79
-450.08
-452.29
-422.94
-368.44
-297.10
-215.88
-131.47
-51.81
15.33
65.83
97.23
111.48
113.71
110.10
105.39
102.79
104.56
112.01
126.04
144.05
162.30
177.49
187.90
193.26
195.80
198.96
206.67
221.99
244.63
271.59
297.78
317.76
321.38
303.76
265.04
210.06
146.07
80.12
17.77
-38.00
-86.30
-127.02
-159.30
-182.82
-198.61
-209.65
-218.90
-227.97
-238.25
-252.04
-272.30
-300.55
-335.80
-372.96
-403.58
-416.43
-401.23
-354.19
-280.05
-188.64
-89.71
10.36
113.56
212.08
294.35
353.82
390.63
407.56
409.52
403.28
395.49
389.78
390.02
389.43
380.91
359.30
320.70
266.88
205.13
144.57
91.56
46.71
10.89
-14.86
-30.41
-41.04
-52.05
-67.26
-88.74
-117.70
-154.49
-197.02
-240.53
-279.96
-317.50
-355.86
-395.53
-434.30
-469.15
-497.98
-519.25
-531.99
-502.68
-417.48
-289.24
-149.66
-25.84
71.45
143.67
196.98
236.30
265.39
281.74
285.60
279.85
269.95
261.24
256.45
256.37
257.69
257.84
251.76
239.97
224.12
207.29
192.29
180.61
172.03
160.95
143.20
113.77
73.31
27.01
-21.81
-70.86
-118.01
-161.73
-206.01
-252.04
-299.65
-340.89
-372.80
-394.37
-406.27
-409.06
-370.60
-282.35
-162.16
-70.38
-13.50
11.77
18.33
9.91
-11.13
-42.73
-87.80
-129.29
-153.12
-149.83
-127.20
-97.19
-68.96
-45.98
-28.90
-21.15
-23.02
-32.44
-39.63
-37.99
-22.82
6.10
44.98
86.55
120.53
140.77
145.63
140.97
131.78
121.95
112.67
103.77
94.79
85.03
75.59
67.44
62.37
59.56
57.23
53.16
46.34
37.38
27.99
20.85
17.80
19.80
25.70
33.19
39.64
43.74
45.64
47.01
50.09
56.31
65.67
76.99
88.56
98.56
105.22
106.71
101.74
89.78
72.38
53.09
36.91
28.68
31.12
43.80
63.25
84.58
103.48
117.65
126.40
130.10
128.81
121.66
107.34
85.54
58.02
28.69
2.56
-16.78
-28.20
-33.76
-37.75
-44.98
-58.77
-79.63
-105.60
-129.33
-145.04
-149.43
-142.97
-130.41
-119.32
-116.79
-125.98
-143.84
-161.48
-168.37
-156.57
-124.61
-78.51
-29.21
11.82
36.48
41.63
28.39
-0.24
-40.10
-86.18
-132.42
-171.64
-197.09
-204.46
-193.36
-167.07
-130.95
-89.38
-44.19
4.90
58.26
113.87
166.28
207.59
230.34
229.79
205.85
162.90
108.42
51.13
-1.40
-44.46
-76.99
-101.05
-120.15
-137.06
-152.09
-163.03
-166.40
-159.60
-142.29
-116.31
-83.87
-45.50
0.53
56.37
121.19
188.87
248.08
285.71
292.24
266.21
215.68
155.51
102.10
67.62
56.71
66.23
88.14
113.61
136.44
154.62
169.85
185.46
204.08
225.95
248.33
266.60
276.24
274.78
262.73
242.82
218.16
190.24
158.53
121.62
79.56
35.06
-7.29
-43.31
-71.50
-94.18
-116.22
-142.53
-175.83
-215.78
-259.70
-303.72
-343.71
-375.47
-394.77
-397.67
-381.45
-345.62
-292.19
-224.97
-148.36
-66.93
14.12
88.18
147.45
184.97
197.95
190.37
173.33
161.73
168.68
199.96
251.49
310.88
362.60
394.03
399.67
381.71
347.41
305.04
260.77
217.67
176.61
138.07
103.43
74.81
54.01
41.21
34.51
30.79
27.20
22.58
17.92
15.67
18.54
27.96
43.41
62.64
82.58
100.66
115.61
127.78
138.66
149.97
162.74
176.92
191.47
204.85
215.63
222.93
226.57
226.79
223.92
217.98
208.62
195.22
177.27
154.67
127.86
97.88
66.15
34.27
3.77
-23.98
-47.81
-66.78
-80.23
-87.81
-89.49
-85.65
-77.08
-64.88
-50.42
-35.14
-20.49
-7.74
2.08
8.27
10.41
8.45
2.64
-6.53
-18.41
-32.30
-47.47
-63.23
-79.06
-94.48
-109.06
-122.38
-133.95
-143.24
-149.75
-153.12
-153.26
-150.43
-145.27
-138.68
-131.74
-125.42
-120.55
-117.68
-117.15
-119.15
-123.83
-131.20
-141.08
-152.99
-166.07
-179.17
-191.06
-200.75
-207.80
-212.44
-215.44
-217.78
-220.29
-223.30
-226.63
-229.79
-232.28
-233.95
-235.11
-236.46
-238.98
-243.76
-251.86
-263.94
-279.77
-297.71
-314.70
-326.88
-330.93
-325.33
-311.12
-291.47
-270.37
-251.11
-235.36
-223.14
-213.60
-205.89
-199.57
-194.35
-189.64
-184.14
-176.08
-163.89
-146.84
-125.46
-101.37
-76.66
-53.13
-31.82
-12.80
4.46
20.52
35.61
49.53
61.78
71.69
78.41
80.76
77.49
67.75
51.88
31.75
10.51
-8.49
-22.88
-32.03
-37.04
-39.75
-41.70
-43.59
-45.26
-46.46
-47.31
-48.50
-50.88
-55.05
-60.94
-67.92
-75.23
-82.09
-88.25
-93.78
-99.01
-104.26
-109.66
-115.01
-119.90
-123.85
-126.45
-127.58
-127.31
-125.97
-123.97
-121.79
-119.85
-118.43
-117.61
-117.23
-117.07
-116.90
-116.75
-116.88
-117.70
-119.68
-123.12
-128.30
-135.43
-144.66
-155.69
-167.62
-178.76
-187.10
-191.07
-190.17
-185.33
-178.43
-171.53
-165.87
-161.52
-157.56
-152.72
-145.96
-136.83
-125.33
-111.61
-95.79
-78.01
-58.51
-37.90
-17.06
2.94
21.15
36.94
50.10
60.77
69.20
75.64
80.12
82.45
82.29
79.38
73.63
65.24
54.66
42.49
29.35
15.78
2.22
-10.99
-23.52
-35.03
-45.14
-53.48
-59.75
-63.78
-65.56
-65.22
-63.01
-59.23
-54.20
-48.19
-41.44
-34.22
-26.72
-19.10
-11.53
-4.10
3.16
10.31
17.40
24.54
31.79
39.22
46.83
54.58
62.38
70.11
77.60
84.68
91.19
97.04
102.23
106.84
111.05
115.13
119.30
123.75
128.53
133.56
138.59
143.31
147.32
150.26
151.80
151.68
149.73
145.85
140.03
132.38
123.14
112.77
101.89
91.20
81.37
72.86
65.83
60.18
55.68
52.09
49.40
47.85
47.80
49.59
53.24
58.40
64.33
70.23
75.46
79.92
84.04
88.65
94.54
102.08
110.98
120.42
129.46
137.54
144.79
152.06
160.41
170.71
183.29
198.06
214.75
232.92
251.71
269.36
283.30
290.93
290.85
283.82
272.68
261.05
251.65
245.46
242.04
240.85
242.33
247.84
258.20
272.33
286.73
296.60
297.92
289.00
270.96
246.98
221.42
199.16
184.93
182.26
191.53
208.77
226.26
235.50
231.16
213.69
188.73
163.33
141.67
122.61
100.86
70.71
29.55
-21.11
-77.66
-137.19
-198.91
-262.91
-327.44
-387.11
-433.65
-459.19
-459.80
-437.29
-398.36
-351.50
-303.85
-259.33
-218.67
-180.65
-143.52
-105.86
-66.81
-25.89
17.17
62.44
109.44
156.91
202.53
242.77
273.80
292.87
299.99
298.94
296.69
300.95
316.87
344.42
377.89
408.04
425.75
425.44
406.65
373.31
331.20
285.51
239.10
192.68
145.87
98.90
53.13
10.69
-26.62
-58.78
-88.45
-120.90
-162.29
-217.04
-284.86
-359.31
-428.78
-479.85
-501.93
-490.86
-450.18
-389.62
-321.96
-259.80
-213.28
-188.80
-187.99
-207.48
-239.00
-271.06
-291.91
-293.10
-272.33
-234.17
-188.06
-144.72
-112.63
-95.53
-92.11
-97.50
-105.79
-112.35
-115.07
-114.01
-109.86
-102.82
-91.95
-76.11
-55.46
-32.16
-9.63
9.29
24.29
38.12
55.28
79.96
114.04
156.57
204.36
252.84
297.00
332.22
355.13
364.86
363.40
354.67
342.28
327.05
305.63
271.57
218.59
144.68
54.50
-41.15
-128.92
-197.68
-242.06
-263.40
-267.80
-262.85
-254.63
-246.41
-238.98
-231.80
-225.10
-220.23
-219.05
-222.24
-228.51
-234.90
-238.33
-237.16
-231.49
-223.07
-214.14
-205.92
-197.70
-187.05
-170.83
-146.74
-114.12
-73.27
-25.92
25.42
78.48
132.47
188.79
250.70
321.70
403.19
495.28
592.39
683.67
756.15
800.06
812.98
800.29
771.96
737.73
709.49
692.57
684.95
679.44
668.41
647.39
615.63
574.60
526.74
484.76
459.72
456.38
470.72
492.60
510.62
516.19
505.67
481.47
463.69
471.67
515.11
589.69
681.38
774.65
858.23
926.63
902.61
745.96
464.51
114.26
-235.61
-538.01
-775.81
-951.17
-1073.52
-1153.19
-1186.39
-1172.07
-1117.40
-1038.75
-954.55
-879.43
-819.60
-774.26
-738.93
-697.79
-638.75
-558.04
-461.39
-359.93
-264.82
-184.72
-125.05
-96.70
-97.15
-117.44
-144.73
-167.50
-179.49
-180.49
-175.57
-172.98
-179.21
-192.69
-208.61
-220.91
-224.97
-219.28
-202.28
-177.05
-150.30
-131.12
-124.76
-132.48
-151.48
-176.96
-204.17
-228.75
-246.71
-253.41
-245.87
-223.33
-189.63
-152.82
-122.53
-106.16
-105.70
-117.89
-129.49
-129.12
-111.19
-79.02
-41.05
-4.51
27.64
55.93
81.26
103.64
120.02
127.48
124.71
113.23
96.96
80.02
65.76
55.38
48.05
39.58
25.99
4.84
-24.03
-59.19
-98.61
-140.15
-181.25
-210.41
-220.53
-208.18
-175.49
-129.90
-81.77
-40.87
-12.98
1.44
6.35
5.55
1.94
-3.46
-10.59
-19.03
-27.36
-33.34
-35.10
-32.13
-26.84
-22.41
-21.84
-26.62
-36.39
-49.52
-63.88
-77.04
-87.25
-94.68
-100.42
-105.74
-111.14
-116.00
-118.70
-117.15
-109.81
-95.37
-74.37
-49.00
-22.46
2.22
22.99
38.89
49.75
58.63
68.96
82.95
100.95
121.80
144.01
166.61
189.30
212.25
239.40
274.82
320.89
377.19
440.86
508.08
575.36
640.10
678.11
672.05
616.25
520.77
406.12
292.53
192.58
110.35
44.18
-9.92
-52.37
-82.54
-100.05
-106.32
-104.56
-98.31
-90.15
-81.72
-74.71
-69.42
-67.79
-73.12
-88.46
-114.07
-146.08
-177.56
-201.76
-215.28
-217.40
-210.55
-198.27
-183.49
-167.80
-151.78
-136.00
-121.68
-110.43
-102.55
-97.05
-92.11
-85.96
-77.52
-66.95
-55.50
-44.90
-36.79
-31.78
-29.49
-28.80
-28.38
-27.40
-25.24
-22.11
-18.71
-15.96
-14.59
-14.89
-16.57
-18.90
-20.89
-21.61
-20.61
-18.01
-14.63
-11.57
-9.96
-10.51
-13.21
-17.22
-21.11
-23.55
-23.87
-22.42
-20.18
-18.55
-18.83
-21.77
-27.42
-35.05
-43.13
-49.46
-51.69
-47.59
-36.48
-20.33
-3.64
8.33
12.10
7.88
-0.34
-6.88
-6.34
3.26
18.95
34.13
41.66
37.04
19.86
-6.77
-38.86
-70.30
-95.09
-108.99
-110.14
-98.62
-75.68
-43.44
-2.30
40.54
76.36
99.62
109.59
108.57
99.95
87.61
75.39
66.55
62.97
66.27
77.82
95.49
114.52
128.24
130.32
117.04
88.70
49.31
6.13
-33.39
-62.07
-74.91
-73.02
-61.86
-47.20
-32.22
-17.78
-3.22
11.65
25.46
36.32
42.74
44.89
44.53
44.00
44.70
46.85
49.16
49.75
46.99
39.85
28.54
14.43
-0.75
-15.77
-30.15
-40.84
-48.64
-54.60
-59.49
-63.41
-65.93
-66.46
-64.92
-61.68
-57.43
-53.24
-49.61
-46.67
-44.31
-42.26
-40.18
-38.16
-36.39
-35.14
-34.64
-34.58
-34.53
-34.15
-33.48
-32.69
-32.34
-32.97
-34.80
-37.36
-39.58
-40.34
-38.97
-36.89
-34.05
-31.37
-30.05
-30.87
-33.52
-37.05
-40.59
-43.77
-47.07
-51.43
-57.93
-65.99
-76.92
-91.06
-107.78
-125.11
-139.26
-145.07
-139.21
-118.21
-83.26
-40.03
3.64
40.44
66.17
80.74
87.00
88.59
87.90
85.42
80.70
73.77
65.49
57.46
51.12
46.95
44.46
42.66
40.75
39.00
38.43
40.22
45.14
53.13
63.34
74.24
84.18
92.25
98.56
103.64
108.05
112.35
116.82
121.92
128.23
132.27
127.78
111.83
84.42
48.40
8.44
-30.94
-65.82
-93.71
-113.80
-126.24
-131.93
-132.74
-130.85
-127.41
-122.80
-115.82
-104.65
-88.24
-66.78
-41.91
-16.30
7.17
27.28
44.17
60.37
78.99
103.05
135.23
177.35
230.07
288.24
345.64
387.78
401.77
380.39
326.93
254.82
181.29
119.87
75.87
47.57
29.28
16.55
7.20
0.28
-5.12
-11.38
-21.78
-39.75
-66.76
-102.37
-139.49
-171.82
-195.24
-208.67
-214.06
-214.32
-212.69
-210.94
-209.33
-206.52
-201.43
-193.58
-183.51
-173.02
-163.46
-156.30
-151.94
-149.74
-147.95
-145.05
-139.89
-132.00
-124.57
-116.64
-107.51
-96.39
-82.31
-64.18
-41.46
-14.35
17.91
52.02
85.07
114.31
138.18
156.31
169.43
178.72
185.14
188.87
189.08
185.32
176.86
163.64
146.71
127.12
106.00
84.13
61.45
36.95
10.14
-19.36
-50.13
-81.77
-113.65
-144.06
-169.71
-185.88
-187.99
-173.40
-143.74
-105.07
-66.16
-34.90
-15.56
-7.88
-8.48
-13.27
-19.39
-25.97
-33.06
-40.69
-47.89
-53.33
-56.27
-57.36
-58.30
-60.72
-65.39
-71.25
-75.99
-76.97
-72.65
-63.13
-50.44
-36.77
-23.60
-11.21
1.83
17.58
37.44
60.68
84.67
105.64
120.33
127.79
129.57
129.34
130.96
136.86
146.91
159.53
172.76
182.93
188.01
184.75
169.27
139.33
98.96
55.11
18.31
-2.93
-7.54
-3.07
-2.10
-14.60
-41.88
-75.85
-104.43
-118.48
-117.16
-107.92
-101.45
-104.86
-117.73
-133.52
-144.49
-146.67
-141.04
-131.84
-123.45
-116.81
-109.58
-97.72
-77.63
-48.24
-11.86
27.03
62.24
89.62
107.79
117.94
123.10
126.63
130.81
136.04
141.10
143.91
142.80
137.38
128.64
118.71
109.93
103.88
100.95
100.83
102.95
106.87
111.46
114.16
110.94
97.66
72.16
36.14
-4.69
-42.57
-70.81
-86.50
-91.10
-88.85
-84.09
-79.32
-74.78
-69.69
-63.69
-57.49
-52.54
-49.91
-49.54
-50.18
-50.20
-48.21
-43.95
-38.29
-32.62
-28.34
-26.07
-25.57
-25.86
-25.71
-24.28
-21.40
-17.60
-13.78
-10.75
-8.94
-8.20
-8.04
-7.82
-7.09
-5.76
-3.98
-2.08
-0.33
1.11
2.21
3.00
3.52
3.82
3.93
4.05
4.42
5.31
6.84
8.79
10.69
11.97
12.24
11.49
10.27
9.43
9.74
11.57
14.46
17.46
19.41
19.48
17.54
14.33
11.02
8.45
6.91
5.64
3.33
-1.37
-9.48
-21.57
-37.67
-57.04
-77.67
-95.49
-106.04
-105.26
-91.68
-67.77
-39.36
-13.49
4.63
13.45
15.18
13.58
11.83
11.01
10.25
8.20
4.49
0.34
-2.23
-1.69
1.90
6.93
11.23
12.85
11.49
8.25
5.23
4.48
7.10
13.05
21.74
32.84
46.27
61.55
76.50
87.30
89.43
79.84
59.02
30.99
1.57
-24.62
-45.92
-63.18
-77.40
-87.62
-90.53
-82.06
-61.97
-34.36
-6.78
13.17
21.35
18.83
10.51
2.26
-1.55
0.36
7.17
17.66
31.49
48.98
69.70
91.02
108.04
114.72
107.75
88.24
61.80
36.34
18.67
11.73
13.92
20.83
27.92
32.61
34.66
35.08
34.61
32.89
28.93
21.76
11.54
-0.51
-12.70
-23.37
-31.68
-37.67
-42.00
-45.43
-48.58
-51.35
-53.19
-53.52
-52.11
-49.31
-45.99
-43.28
-42.09
-43.07
-45.93
-49.94
-54.22
-58.04
-60.98
-62.92
-63.87
-63.65
-62.23
-58.80
-52.53
-42.88
-29.60
-12.96
6.29
27.04
49.14
70.02
88.27
102.97
113.60
119.88
121.85
119.74
113.92
104.92
92.82
78.46
62.65
46.05
29.11
12.30
-4.22
-20.42
-33.93
-45.52
-55.48
-63.91
-70.88
-76.46
-80.57
-83.47
-85.49
-86.81
-88.04
-89.23
-90.33
-91.29
-92.10
-92.60
-93.01
-93.55
-94.11
-94.78
-95.11
-94.44
-92.17
-89.43
-84.80
-77.94
-69.00
-58.08
-45.49
-31.16
-14.82
3.65
24.03
45.86
68.52
89.82
108.34
123.16
134.46
143.02
149.65
154.68
157.90
158.10
153.77
144.03
128.94
109.25
86.75
63.23
40.08
17.94
-3.46
-24.62
-45.80
-67.54
-89.79
-112.14
-133.38
-150.86
-160.63
-158.66
-142.92
-112.78
-75.76
-41.10
-16.48
-5.61
-7.46
-17.76
-31.54
-45.17
-57.28
-68.20
-77.95
-85.84
-90.89
-92.59
-91.24
-87.73
-82.55
-76.54
-68.99
-58.83
-45.32
-28.69
-10.18
8.54
26.22
42.98
59.48
76.85
95.64
115.59
135.14
152.19
164.99
171.07
172.42
171.78
171.72
173.92
179.39
187.65
196.42
201.25
196.25
176.05
137.91
86.34
28.36
-24.59
-61.56
-77.00
-73.03
-58.15
-42.79
-35.61
-39.69
-52.94
-70.29
-87.41
-102.39
-115.11
-125.54
-132.58
-134.38
-129.32
-117.77
-102.36
-86.42
-72.94
-63.16
-55.91
-48.38
-37.81
-22.82
-4.33
15.41
33.60
48.38
59.54
68.37
76.98
87.42
101.02
117.91
136.41
152.62
161.13
156.32
134.49
95.93
45.75
-7.57
-55.23
-91.23
-114.57
-128.09
-135.83
-140.07
-140.33
-134.74
-122.65
-106.54
-91.03
-82.78
-85.94
-99.96
-120.05
-139.92
-155.03
-164.22
-169.26
-172.74
-175.73
-177.50
-176.62
-171.79
-163.10
-152.19
-141.74
-134.45
-130.80
-130.00
-130.18
-129.11
-125.00
-116.97
-105.20
-90.27
-75.57
-60.86
-45.07
-26.80
-4.99
20.64
49.46
80.00
110.56
139.56
169.35
202.15
239.37
281.23
327.31
377.41
431.82
490.29
550.51
610.78
665.12
704.93
722.18
713.06
679.97
630.44
573.76
496.24
393.69
270.06
137.96
13.37
-91.30
-170.51
-224.88
-258.96
-278.80
-286.46
-284.04
-274.06
-259.64
-244.28
-230.60
-219.67
-211.27
-204.75
-196.72
-185.24
-170.27
-153.70
-138.26
-127.63
-124.76
-131.38
-147.24
-167.81
-186.72
-197.22
-193.85
-176.48
-150.29
-123.13
-102.08
-90.55
-86.56
-85.30
-81.83
-73.93
-62.51
-49.93
-38.06
-27.28
-16.84
-5.50
7.10
20.73
34.27
46.11
55.47
62.68
68.90
75.16
81.68
83.84
79.50
67.75
48.93
24.68
-2.46
-29.50
-54.10
-75.09
-92.52
-106.69
-118.51
-128.68
-137.03
-143.32
-145.80
-142.92
-133.97
-119.33
-99.55
-75.55
-48.04
-17.13
15.70
49.05
81.12
109.53
131.66
145.60
150.76
147.99
139.83
129.58
120.52
114.72
112.55
112.80
113.04
110.17
101.49
85.94
65.18
43.78
27.52
21.20
26.62
41.75
60.99
76.82
82.06
72.33
48.31
16.02
-14.60
-33.36
-33.88
-16.27
13.18
45.88
74.03
93.83
105.60
111.00
110.95
104.43
89.60
65.86
35.19
1.86
-29.20
-54.26
-71.75
-82.06
-86.40
-85.82
-80.77
-71.61
-58.68
-42.60
-24.59
-6.51
9.37
21.03
27.45
28.97
26.82
23.24
20.92
22.05
27.45
36.34
46.82
56.86
65.48
72.39
79.03
87.43
99.06
113.76
129.45
142.95
151.02
153.61
148.49
134.60
113.04
87.61
63.75
46.56
38.76
39.23
43.33
41.28
26.47
-1.03
-34.58
-65.00
-85.19
-92.64
-89.22
-79.02
-71.64
-73.49
-86.20
-108.08
-137.75
-175.61
-222.47
-277.62
-337.72
-404.35
-476.40
-549.34
-616.88
-674.56
-721.90
-761.62
-797.77
-791.03
-722.30
-598.30
-445.76
-290.25
-144.31
-11.47
106.35
205.61
282.77
330.22
346.95
340.04
321.30
301.07
284.24
271.32
261.37
254.22
245.55
232.90
216.66
199.31
183.06
168.48
155.37
143.87
134.73
125.64
114.92
102.37
89.15
76.34
64.26
52.82
42.13
32.46
22.46
10.85
-2.84
-18.22
-34.35
-50.13
-64.35
-74.96
-79.96
-78.61
-71.09
-57.88
-39.73
-17.38
8.44
36.77
66.66
96.63
125.62
150.45
167.86
175.45
172.53
160.52
142.58
122.54
103.33
86.12
70.15
54.02
36.63
18.43
1.61
-10.55
-15.13
-10.71
2.07
20.30
39.55
54.46
59.68
50.84
26.28
-11.21
-54.15
-92.13
-115.83
-120.95
-110.57
-93.73
-81.18
-79.90
-89.60
-102.83
-108.92
-99.48
-71.79
-30.31
15.65
56.39
85.90
103.77
113.97
122.17
132.87
148.17
167.80
190.33
213.88
236.01
253.29
261.58
257.09
237.09
200.50
148.33
83.73
11.52
-62.52
-132.67
-194.27
-241.47
-268.89
-274.31
-260.76
-234.92
-203.68
-171.40
-139.55
-108.05
-76.76
-46.76
-20.17
0.56
14.54
22.79
27.69
31.88
37.41
45.37
55.41
65.96
74.37
79.24
80.53
79.51
77.48
75.60
74.67
74.86
75.49
74.38
70.39
63.32
53.69
42.16
29.28
15.41
0.94
-14.00
-30.64
-48.79
-67.11
-83.59
-96.36
-104.21
-106.95
-105.22
-90.25
-61.24
-21.15
24.73
71.16
114.34
152.37
183.10
208.86
231.42
250.15
264.72
275.06
281.27
283.24
281.36
275.78
267.08
255.54
240.60
222.77
203.42
184.34
167.25
153.50
143.73
138.20
136.12
135.42
134.15
130.62
123.49
111.92
95.61
74.79
50.38
23.55
-4.59
-32.74
-59.64
-84.21
-105.60
-123.18
-136.53
-145.34
-149.66
-150.15
-148.01
-144.87
-142.46
-142.13
-144.51
-149.31
-155.50
-161.67
-166.84
-170.83
-174.43
-178.95
-185.52
-194.39
-204.83
-215.40
-224.64
-231.74
-237.04
-241.73
-247.58
-256.45
-270.13
-290.12
-316.76
-348.15
-379.20
-401.85
-406.78
-386.46
-338.18
-265.59
-178.05
-87.56
-5.29
61.17
108.48
136.57
146.91
141.64
123.92
98.70
73.19
55.60
52.90
68.29
99.86
141.03
183.22
218.84
243.71
257.50
262.48
261.32
255.42
244.48
227.49
204.46
177.64
151.49
131.28
120.97
121.16
128.74
138.08
143.57
141.94
133.27
120.19
105.96
92.66
80.36
67.92
54.31
39.69
25.44
13.08
3.40
-4.04
-10.29
-16.01
-20.94
-24.09
-24.66
-22.92
-20.63
-20.38
-24.58
-34.53
-49.94
-69.37
-91.05
-113.73
-136.92
-160.47
-183.85
-205.43
-222.50
-231.96
-231.64
-221.52
-203.89
-182.48
-161.24
-143.09
-129.33
-120.06
-114.69
-112.53
-112.74
-114.49
-116.89
-119.21
-121.12
-122.68
-123.95
-124.65
-124.29
-122.31
-118.51
-113.15
-106.64
-98.93
-89.61
-78.30
-65.91
-54.14
-44.94
-39.50
-37.67
-38.14
-39.16
-39.79
-40.47
-42.85
-47.83
-53.90
-56.58
-49.57
-27.20
12.79
67.37
128.04
181.76
215.95
222.63
200.37
153.75
90.86
20.62
-48.82
-110.43
-160.84
-196.22
-211.84
-204.68
-176.96
-137.27
-97.75
-69.11
-56.11
-62.28
-83.27
-108.67
-127.54
-135.21
-135.16
-135.43
-142.91
-159.29
-190.46
-235.76
-287.81
-336.82
-377.64
-411.42
-441.68
-469.72
-492.88
-519.35
-554.04
-595.67
-638.49
-678.88
-718.30
-760.64
-808.71
-780.55
-634.74
-388.06
-103.12
160.47
372.59
526.80
628.74
689.17
721.33
725.17
701.99
658.30
605.25
552.42
504.98
465.49
435.38
415.65
396.10
368.24
330.17
286.96
245.53
209.67
182.85
166.72
161.56
160.63
157.92
151.14
142.53
135.12
130.62
129.85
132.80
139.16
146.23
151.75
154.77
156.45
157.85
159.30
161.00
163.08
166.10
171.34
181.09
192.65
205.58
219.20
232.62
244.94
255.09
252.29
229.95
187.33
129.11
63.09
-4.28
-68.68
-127.26
-177.97
-219.19
-250.15
-270.03
-278.41
-275.35
-261.81
-238.56
-205.60
-162.28
-107.12
-43.02
24.46
88.36
142.45
182.30
206.42
216.19
215.04
207.28
197.53
190.26
188.00
189.91
191.66
186.70
169.09
136.66
92.96
46.29
7.25
-16.06
-21.92
-14.70
-1.84
8.84
12.41
6.75
-8.76
-32.61
-61.25
-89.45
-111.13
-122.15
-122.62
