1670572615.00
64.000000
-0.00
-0.00
-0.00
-0.00
-0.00
-0.00
-0.00
-0.00
-0.00
-0.00
0.00
0.01
0.01
-0.00
-0.03
-0.05
-0.05
0.00
0.13
0.36
0.66
1.01
1.37
1.72
2.06
2.40
2.79
3.24
3.80
4.42
5.06
5.66
6.20
6.68
7.15
7.68
8.31
9.14
10.09
11.04
11.88
12.56
13.14
13.76
14.65
15.96
17.91
20.32
22.90
25.38
27.58
29.57
31.68
34.32
37.81
42.54
48.15
54.10
59.83
64.97
69.58
74.14
79.34
85.71
93.76
103.00
112.62
121.73
129.77
136.75
143.30
150.75
157.77
166.64
177.95
191.79
206.97
220.57
228.25
225.36
208.53
176.87
132.76
80.05
23.07
-34.94
-92.44
-149.16
-205.23
-260.37
-313.74
-363.87
-409.83
-450.91
-486.50
-515.74
-537.23
-549.22
-549.96
-538.37
-514.21
-478.67
-433.88
-382.45
-327.02
-269.84
-212.63
-156.66
-102.95
-52.37
-5.91
35.58
71.43
101.36
125.52
144.40
158.73
169.20
176.43
180.83
182.67
182.19
179.65
175.40
169.86
163.43
156.45
149.17
141.74
134.21
126.64
119.06
111.53
104.13
96.92
89.94
83.23
76.80
70.66
64.83
59.30
54.09
49.21
44.67
40.46
36.57
32.99
29.74
26.81
24.19
21.89
19.91
18.25
16.89
15.82
15.03
14.53
14.30
14.32
14.53
14.89
15.36
15.89
16.49
17.22
18.14
19.31
20.75
22.37
24.10
25.89
27.58
29.14
30.59
31.95
33.21
34.30
35.12
35.55
35.56
35.03
34.07
32.88
31.62
30.34
28.82
26.56
22.97
17.63
10.08
0.46
-10.74
-22.80
-35.05
-47.22
-59.49
-72.26
-84.95
-97.74
-109.95
-120.34
-127.58
-130.80
-130.10
-126.59
-122.86
-119.86
-118.26
-117.62
-116.76
-114.58
-110.44
-104.91
-99.62
-96.55
-97.23
-102.71
-113.05
-127.15
-142.38
-154.11
-156.52
-144.16
-114.15
-67.93
-11.56
46.38
97.97
137.59
164.36
180.78
190.04
193.86
192.29
184.98
172.98
159.33
147.93
141.73
140.86
142.49
142.38
136.94
125.46
110.27
95.60
85.57
82.31
85.04
90.89
96.66
99.64
97.91
89.91
75.13
54.06
30.50
11.29
3.65
11.17
30.57
52.08
63.56
56.68
31.23
-4.71
-39.43
-63.68
-74.62
-75.72
-73.07
-71.11
-70.44
-68.82
-63.68
-54.42
-43.17
-33.63
-28.60
-28.52
-31.39
-33.96
-33.29
-28.22
-19.74
-10.42
-3.11
0.34
-0.25
-3.50
-7.33
-10.04
-10.97
-10.69
-10.64
-12.18
-15.98
-21.65
-27.94
-33.27
-36.35
-36.53
-33.87
-28.92
-22.50
-15.22
-7.38
0.98
10.16
19.73
29.21
38.15
46.10
52.61
57.31
60.08
60.91
59.76
56.61
51.44
44.58
36.43
27.37
17.73
7.88
-1.92
-11.49
-20.13
-27.82
-34.17
-38.61
-40.90
-41.12
-39.55
-36.81
-33.73
-31.04
-29.17
-28.62
-28.44
-27.48
-26.08
-24.88
-24.18
-24.63
-26.65
-30.14
-34.39
-38.23
-40.93
-42.16
-42.09
-41.30
-40.64
-40.86
-42.73
-47.00
-53.92
-62.49
-69.98
-71.99
-64.29
-45.00
-15.91
18.06
50.98
78.26
97.33
107.27
107.30
96.03
72.25
36.82
-6.35
-50.86
-89.87
-118.21
-133.31
-134.72
-123.19
-100.35
-69.34
-35.07
-3.67
19.40
31.37
33.14
28.32
21.10
14.10
8.04
2.25
-4.02
-10.66
-16.89
-21.96
-25.84
-29.22
-33.07
-38.13
-44.43
-51.22
-57.39
-61.88
-64.18
-64.41
-63.17
-61.29
-59.28
-57.41
-55.60
-53.38
-50.30
-46.11
-40.85
-34.61
-27.48
-19.19
-9.46
2.05
15.54
30.88
47.51
64.51
80.96
95.06
106.52
115.30
121.51
125.27
126.56
125.33
121.54
115.58
108.19
100.55
93.62
87.96
83.54
79.76
76.27
72.02
66.73
60.94
55.80
52.40
51.21
51.89
53.26
53.91
52.77
49.71
45.61
41.90
39.84
40.09
42.79
47.74
54.32
61.01
65.15
63.00
51.18
28.55
-2.66
-36.92
-67.72
-90.51
-104.53
-112.13
-116.11
-116.86
-111.73
-97.24
-72.47
-41.28
-10.94
11.45
22.62
24.06
19.97
14.35
9.52
6.37
5.84
9.46
18.06
29.98
40.54
43.89
36.40
19.34
-1.53
-19.23
-29.30
-31.64
-29.65
-27.17
-26.01
-25.51
-23.85
-20.04
-14.82
-10.20
-8.14
-9.46
-13.32
-17.91
-21.34
-22.50
-21.57
-19.79
-18.69
-19.38
-22.12
-26.15
-30.12
-32.76
-33.24
-31.58
-28.42
-24.68
-21.08
-17.88
-14.83
-11.17
-6.67
-1.20
5.00
11.42
17.43
22.58
26.64
29.70
32.01
33.78
35.12
36.08
36.51
36.30
35.44
34.00
32.18
30.21
28.21
26.32
24.60
23.02
21.48
19.82
17.86
15.36
12.15
8.04
2.93
-3.01
-9.45
-15.96
-22.01
-27.04
-30.51
-32.03
-31.38
-28.72
-24.10
-17.85
-10.40
-2.20
6.09
13.89
20.59
25.65
28.45
28.87
26.98
23.06
17.56
10.99
3.83
-3.63
-9.91
-15.78
-21.42
-26.71
-31.31
-34.75
-36.71
-37.11
-36.30
-34.96
-34.04
-34.08
-35.14
-36.74
-38.10
-38.44
-37.43
-35.42
-33.40
-32.59
-33.69
-36.70
-40.74
-44.48
-46.85
-47.31
-46.29
-44.84
-44.19
-45.29
-48.79
-55.08
-63.93
-74.01
-82.28
-84.57
-77.45
-58.98
-31.21
0.34
28.75
48.48
57.54
57.69
52.82
46.60
40.96
35.76
30.09
23.56
16.83
11.18
7.52
5.66
4.41
2.35
-1.74
-7.97
-15.45
-22.80
-28.74
-32.61
-34.57
-35.36
-35.80
-36.42
-37.05
-36.97
-35.22
-31.09
-24.46
-15.73
-5.81
4.25
13.49
21.37
27.79
32.85
36.79
39.73
41.67
42.52
42.23
40.82
38.52
35.72
32.82
30.19
28.05
26.47
25.41
24.71
24.20
23.69
23.06
22.21
21.09
19.65
17.81
15.59
12.94
9.83
6.31
2.53
-1.28
-4.82
-7.87
-10.38
-12.32
-13.90
-15.47
-17.30
-19.48
-21.77
-23.78
-25.08
-25.54
-25.00
-23.73
-22.19
-20.71
-19.24
-17.32
-14.30
-9.71
-3.52
4.23
13.07
22.63
32.92
44.54
58.55
76.11
98.45
123.62
151.40
182.41
217.46
256.29
296.50
333.29
360.64
373.30
368.67
348.21
316.22
278.28
239.54
203.60
172.36
146.36
125.04
106.95
90.01
71.28
47.76
17.86
-16.89
-51.05
-76.23
-83.87
-69.14
-33.80
13.24
59.04
91.69
104.84
99.41
82.05
61.27
43.81
32.94
28.68
29.52
33.81
40.27
47.67
54.42
58.72
58.99
54.49
45.68
34.12
21.96
11.33
3.53
-1.50
-5.28
-10.19
-18.45
-31.03
-47.10
-64.50
-80.65
-93.92
-104.45
-114.08
-125.55
-141.27
-162.28
-187.94
-216.46
-245.79
-274.64
-302.99
-332.07
-363.94
-400.98
-445.42
-498.28
-558.32
-621.09
-678.95
-722.72
-744.42
-740.20
-711.81
-665.84
-611.04
-555.19
-502.89
-455.43
-412.11
-372.04
-335.15
-302.07
-273.32
-248.57
-226.56
-205.73
-184.88
-163.62
-142.22
-121.15
-100.63
-80.36
-59.62
-37.64
-13.92
11.51
38.18
65.28
92.05
117.87
142.37
165.39
186.96
207.15
226.18
244.37
262.15
280.11
299.11
320.12
343.90
370.20
397.23
421.56
438.90
445.51
439.72
422.63
397.84
370.01
343.10
319.14
297.89
277.62
256.37
232.99
207.60
181.25
155.31
130.78
108.14
87.65
69.70
55.19
45.43
41.52
43.67
50.76
60.50
70.27
78.09
83.25
86.31
88.46
90.72
93.48
96.65
100.08
104.02
108.98
115.32
122.70
129.95
135.69
139.16
140.82
142.18
144.92
149.96
157.05
165.16
173.32
181.30
189.75
199.62
211.18
223.27
233.03
236.75
231.12
214.69
188.58
156.07
121.19
87.04
54.92
24.79
-3.49
-28.73
-48.44
-60.18
-63.68
-61.81
-59.78
-62.45
-71.86
-86.35
-102.37
-117.04
-130.39
-144.81
-162.39
-181.94
-198.16
-203.95
-194.47
-170.43
-137.52
-102.92
-70.72
-39.51
-3.66
42.52
100.25
164.88
227.85
282.35
327.37
368.00
410.85
458.34
505.13
539.53
548.97
524.49
466.15
382.72
287.53
193.24
108.01
34.65
-27.79
-82.01
-135.69
-196.77
-270.81
-357.67
-450.26
-536.52
-603.98
-645.15
-659.95
-661.94
-666.86
-685.16
-717.02
-753.92
-784.87
-802.52
-805.99
-798.72
-794.09
-802.33
-826.81
-863.20
-903.23
-939.78
-969.58
-992.43
-966.35
-864.70
-681.02
-437.22
-172.71
75.73
285.91
450.00
562.42
635.84
673.70
678.14
653.00
606.44
549.29
491.22
439.60
398.28
369.17
345.54
324.93
306.78
292.87
285.19
284.14
285.89
289.75
295.16
295.67
285.36
260.58
222.51
176.54
130.03
89.83
61.02
48.61
52.04
67.26
87.46
106.88
122.67
134.91
145.05
154.63
163.82
170.15
171.87
165.18
147.76
119.14
80.40
33.88
-16.58
-65.94
-105.18
-125.81
-125.09
-107.08
-80.85
-56.18
-39.49
-31.98
-30.71
-31.47
-31.99
-32.74
-35.11
-39.75
-45.71
-50.84
-53.19
-52.12
-48.54
-44.80
-43.65
-46.36
-52.44
-59.97
-66.58
-70.62
-71.47
-69.59
-66.33
-63.22
-60.98
-59.36
-57.92
-55.22
-50.59
-44.21
-37.01
-30.41
-25.74
-23.76
-24.46
-27.05
-30.45
-33.82
-36.67
-38.82
-40.49
-41.96
-43.59
-45.61
-47.88
-50.29
-52.93
-55.96
-59.57
-63.98
-69.26
-75.44
-82.55
-90.14
-97.84
-105.37
-112.48
-118.88
-124.14
-127.63
-128.44
-128.26
-127.51
-126.41
-125.03
-123.39
-121.46
-119.17
-116.47
-113.39
-110.02
-106.10
-101.53
-96.30
-90.48
-84.21
-77.60
-70.85
-64.17
-57.83
-51.76
-46.02
-40.69
-35.76
-31.21
-26.81
-22.34
-17.62
-12.70
-7.39
-1.55
4.97
12.34
20.71
30.35
41.44
54.02
67.77
82.37
97.46
112.66
127.59
141.96
155.82
169.23
182.22
194.39
205.69
216.28
226.76
237.75
249.83
264.14
281.42
301.87
324.75
350.26
379.25
412.46
449.14
486.84
523.42
556.22
582.75
599.23
603.93
596.50
577.92
549.71
514.54
478.53
447.42
424.82
408.26
394.63
380.70
364.29
343.52
317.33
288.44
259.12
230.74
200.09
166.69
132.46
101.18
75.81
39.43
-16.73
-93.54
-160.72
-208.47
-236.18
-254.50
-269.22
-283.71
-298.87
-310.81
-316.44
-315.75
-315.99
-324.31
-345.44
-380.49
-427.50
-481.81
-535.10
-580.48
-614.18
-638.18
-654.46
-655.37
-632.26
-581.50
-508.23
-423.59
-340.20
-270.11
-213.77
-165.17
-115.88
-59.94
3.97
71.14
134.32
187.50
228.05
254.92
266.93
261.91
236.30
188.07
120.23
42.68
-29.17
-80.42
-103.41
-100.11
-78.94
-50.31
-21.21
6.69
35.14
66.04
101.70
138.44
166.37
176.11
163.83
134.63
103.88
77.79
55.36
31.86
1.75
-35.14
-72.60
-101.44
-114.84
-113.25
-105.95
-105.55
-122.63
-161.62
-218.63
-282.48
-339.09
-376.16
-386.95
-371.92
-336.04
-287.04
-233.57
-182.87
-139.63
-105.73
-80.84
-63.93
-54.09
-49.26
-46.36
-41.68
-31.66
-14.27
10.00
38.40
67.08
92.70
114.54
134.69
156.86
184.32
217.93
254.85
289.23
314.10
324.16
318.08
298.99
273.18
247.70
228.05
216.37
211.49
209.57
205.45
193.93
171.22
136.63
93.81
50.50
15.72
-4.02
-8.56
-5.09
-5.45
-21.07
-57.48
-111.97
-175.14
-235.41
-283.42
-314.30
-327.39
-324.37
-308.13
-282.48
-252.46
-223.65
-200.50
-183.95
-170.75
-154.61
-129.33
-92.65
-47.93
-3.16
32.73
54.05
60.84
58.11
53.07
51.81
56.79
66.94
79.24
90.69
99.72
106.18
110.45
112.74
112.97
110.97
106.79
100.56
92.10
80.80
65.99
47.68
27.26
7.42
-8.70
-18.69
-21.79
-18.84
-11.65
-1.99
9.11
21.27
34.24
47.55
60.76
74.05
88.33
104.24
120.52
132.87
134.90
121.16
90.93
49.90
8.46
-22.91
-38.56
-39.89
-33.19
-25.04
-18.07
-10.15
2.97
23.66
50.06
76.94
98.61
111.64
115.70
112.51
104.14
92.13
77.96
63.67
51.84
44.52
42.13
43.12
44.95
45.63
44.69
42.90
41.16
39.62
37.84
35.72
34.14
34.63
38.08
43.58
48.43
49.41
44.86
35.82
25.54
17.50
13.12
10.93
7.44
-0.63
-14.23
-31.34
-48.08
-60.94
-68.54
-71.93
-73.52
-75.28
-77.40
-78.26
-75.51
-67.45
-54.14
-37.53
-20.77
-7.10
1.22
3.58
0.89
-5.08
-12.83
-21.83
-32.37
-44.87
-58.65
-71.33
-79.50
-80.21
-72.58
-58.54
-42.07
-27.52
-17.81
-13.58
-13.48
-15.11
-16.02
-14.41
-9.37
-1.10
9.16
19.40
27.49
31.92
32.33
29.55
24.92
19.68
14.57
9.99
6.41
4.51
4.88
7.48
11.33
14.70
15.89
14.04
9.63
4.03
-1.15
-4.79
-6.48
-6.14
-3.73
0.90
7.68
15.81
23.78
29.84
33.02
33.79
33.96
35.75
40.55
48.05
56.44
63.45
67.62
69.14
69.71
71.63
76.49
84.36
93.70
102.08
107.27
108.22
105.55
101.37
98.60
99.98
107.09
119.69
135.46
150.42
159.87
159.67
147.57
124.12
92.42
57.03
22.04
-10.61
-42.15
-76.57
-118.95
-172.50
-236.05
-303.10
-362.75
-402.95
-414.16
-392.74
-342.54
-274.65
-205.02
-150.38
-123.44
-128.81
-161.56
-208.83
-254.74
-286.26
-297.66
-291.43
-275.40
-257.98
-243.89
-233.00
-222.22
-208.48
-191.06
-171.77
-153.47
-137.88
-124.69
-111.62
-96.53
-78.59
-58.97
-40.20
-24.40
-12.42
-4.44
-1.75
-8.34
-30.69
-74.68
-141.46
-224.69
-311.19
-385.36
-434.80
-454.50
-446.98
-419.37
-379.20
-331.68
-279.59
-224.94
-170.56
-120.16
-77.05
-42.45
-15.14
7.70
28.95
50.50
73.34
98.03
125.46
156.62
191.80
229.60
266.69
298.42
320.26
329.39
325.37
310.10
287.03
260.75
236.24
218.29
210.42
213.26
223.59
234.50
237.56
226.25
199.43
162.48
125.50
99.48
91.82
104.08
132.30
170.15
212.44
257.14
304.66
355.16
405.64
448.94
475.56
477.35
451.38
401.41
336.51
267.58
203.37
148.07
101.22
59.48
18.75
-24.21
-71.10
-121.75
-173.97
-223.62
-265.31
-293.79
-305.75
-300.89
-281.92
-253.22
-219.20
-183.20
-147.39
-113.34
-82.45
-55.89
-34.32
-17.61
-5.07
4.08
10.46
14.49
16.77
18.19
19.62
21.66
24.55
28.39
33.62
41.06
51.56
65.28
81.22
97.52
112.20
124.11
133.33
140.98
148.51
157.00
166.70
177.04
186.89
194.98
200.41
202.99
203.47
203.28
204.16
207.62
214.30
223.58
233.26
239.75
238.88
227.08
202.81
167.47
125.32
82.10
43.16
11.97
-10.21
-23.31
-26.92
-20.64
-5.04
17.05
40.26
58.77
68.42
68.15
59.91
47.35
33.07
17.79
1.33
-15.80
-30.68
-39.62
-40.88
-36.44
-30.83
-29.14
-34.07
-44.46
-56.63
-66.22
-71.30
-73.51
-80.33
-95.91
-119.35
-144.79
-161.45
-165.26
-157.15
-141.81
-127.01
-120.20
-126.72
-150.07
-190.97
-246.42
-308.43
-363.07
-395.14
-394.81
-361.78
-305.51
-242.33
-189.81
-161.54
-165.02
-200.50
-261.32
-336.84
-412.26
-470.76
-497.92
-486.01
-436.79
-361.21
-274.97
-191.05
-120.07
-64.59
-19.34
24.78
75.98
138.37
211.15
290.61
371.02
444.70
502.97
536.76
539.17
509.01
453.57
387.34
327.10
284.45
260.41
246.69
230.35
201.42
157.99
106.48
57.28
18.91
-6.35
-22.51
-36.16
-52.52
-72.90
-94.96
-114.62
-128.24
-133.46
-129.10
-114.64
-90.23
-57.94
-22.42
9.37
30.20
35.30
24.18
0.55
-29.51
-59.90
-86.48
-107.38
-122.39
-131.86
-136.54
-137.86
-138.25
-140.67
-147.41
-158.66
-172.02
-183.51
-189.43
-188.14
-180.89
-171.16
-162.93
-158.96
-159.50
-162.19
-163.15
-158.59
-146.37
-126.62
-101.18
-72.05
-40.09
-4.89
34.03
74.98
112.98
140.40
149.81
137.29
104.34
57.13
4.10
-46.63
-88.92
-119.08
-136.17
-142.05
-141.03
-138.40
-137.97
-139.73
-139.18
-129.55
-105.45
-66.13
-15.98
38.02
90.10
138.27
183.97
229.55
275.25
318.18
353.41
376.17
383.72
376.01
355.29
325.35
290.77
256.09
225.15
200.19
181.27
166.48
153.12
139.16
124.35
110.14
98.43
90.04
83.72
76.61
65.77
49.85
29.84
8.64
-10.09
-23.26
-28.93
-26.26
-15.52
1.67
22.07
40.88
52.85
53.92
42.70
21.25
-5.62
-32.03
-52.87
-65.03
-67.67
-61.57
-48.26
-29.42
-6.70
18.36
44.19
69.00
90.86
107.81
118.17
121.19
117.81
110.87
104.26
101.26
102.77
106.24
106.32
97.27
75.67
42.21
1.57
-39.50
-74.49
-98.73
-109.88
-107.38
-92.07
-66.30
-34.47
-3.17
19.89
28.11
18.26
-7.94
-44.32
-82.27
-113.55
-132.90
-139.32
-135.91
-128.59
-124.30
-128.90
-145.34
-172.63
-205.60
-236.00
-254.75
-254.87
-233.92
-195.09
-146.17
-96.82
-55.28
-25.60
-6.87
5.63
17.84
34.40
57.17
85.18
115.75
145.67
171.79
190.94
199.65
194.76
174.94
142.36
103.47
67.82
45.08
41.77
58.99
92.08
132.48
170.36
197.35
208.17
201.51
179.56
146.85
108.65
69.05
29.74
-10.56
-54.88
-105.73
-162.51
-220.19
-269.92
-301.47
-306.94
-284.08
-237.88
-179.63
-123.60
-82.77
-65.38
-73.35
-103.05
-147.48
-198.48
-248.11
-289.29
-315.89
-323.30
-309.30
-274.68
-223.09
-160.14
-92.00
-24.47
37.03
87.17
120.87
134.37
126.49
99.40
58.15
9.45
-39.69
-82.70
-113.51
-126.83
-119.02
-89.76
-43.22
12.06
65.39
107.07
131.14
136.50
126.05
105.06
79.47
54.62
34.45
20.82
13.11
8.58
3.79
-3.74
-14.03
-24.59
-31.77
-32.87
-27.53
-17.90
-7.24
1.91
8.78
14.39
20.39
27.75
35.99
43.30
47.31
46.14
39.34
28.29
16.06
6.58
3.55
9.18
23.53
44.31
67.41
87.75
100.01
99.73
84.22
53.74
12.19
-33.24
-73.65
-100.83
-109.64
-99.31
-73.19
-37.32
1.36
36.35
62.04
74.05
69.65
48.79
15.10
-23.95
-58.56
-79.32
-80.20
-60.06
-22.22
27.52
82.80
137.54
185.71
220.93
237.10
230.41
201.41
155.56
101.39
46.93
-3.36
-49.58
-94.59
-140.61
-186.51
-227.37
-256.24
-267.21
-257.85
-229.71
-187.20
-135.69
-80.04
-24.11
28.71
74.99
111.17
134.27
142.97
138.56
124.81
106.78
89.17
75.00
65.31
59.92
58.49
61.00
67.51
77.50
89.26
100.26
108.01
111.22
110.29
106.98
103.31
100.31
97.54
93.37
86.10
74.88
60.20
43.66
27.36
13.19
2.33
-4.90
-9.12
-11.64
-14.18
-18.29
-24.76
-33.22
-42.35
-50.38
-55.86
-58.14
-57.39
-54.31
-49.78
-44.79
-40.55
-38.54
-40.22
-46.46
-56.98
-70.07
-83.01
-92.74
-96.59
-92.79
-80.70
-60.87
-35.02
-6.09
22.27
46.21
62.66
70.04
68.49
59.66
45.98
29.87
13.15
-3.06
-18.19
-31.70
-42.81
-50.47
-53.80
-52.58
-47.60
-40.55
-33.41
-27.74
-24.12
-22.18
-21.04
-19.92
-18.47
-16.78
-15.05
-13.31
-11.40
-9.16
-6.59
-3.93
-1.48
0.53
2.01
2.91
3.09
2.37
0.80
-1.21
-2.88
-3.49
-2.81
-1.40
-0.34
-0.56
-2.21
-4.41
-5.68
-4.82
-1.55
3.26
8.11
11.71
13.61
14.38
15.18
17.11
20.65
25.45
30.52
34.60
36.62
36.00
32.72
27.27
20.42
12.91
5.19
-2.74
-11.19
-20.59
-31.12
-42.50
-53.97
-64.47
-72.84
-78.19
-80.11
-78.81
-75.10
-70.24
-65.67
-62.45
-60.80
-59.67
-56.96
-50.14
-37.22
-17.70
7.23
35.06
63.01
88.85
111.32
129.91
144.38
154.38
159.48
159.61
155.24
147.44
137.48
126.35
114.54
102.15
89.11
75.19
60.16
43.66
25.38
5.42
-15.49
-35.92
-54.12
-68.66
-78.91
-85.05
-87.76
-87.72
-85.21
-80.20
-72.72
-63.38
-53.50
-44.79
-38.71
-35.75
-35.15
-35.15
-33.79
-29.77
-23.03
-14.67
-6.43
0.11
4.05
5.32
4.45
2.19
-0.63
-3.05
-4.05
-2.64
1.61
8.19
15.60
21.75
24.68
23.33
17.79
9.12
-1.18
-11.72
-21.54
-30.20
-37.62
-43.95
-49.36
-53.96
-57.73
-60.58
-62.44
-63.39
-63.63
-63.33
-62.46
-60.70
-57.59
-52.95
-47.12
-40.86
-35.00
-29.81
-24.68
-18.33
-9.43
2.56
17.01
32.35
46.77
59.02
69.01
77.69
86.63
97.32
110.66
126.85
145.52
166.03
187.50
208.60
227.33
240.98
246.69
242.18
226.61
200.84
167.22
128.91
89.12
50.68
15.78
-14.10
-38.46
-57.80
-73.39
-86.55
-97.97
-107.31
-113.53
-115.68
-113.81
-109.26
-104.23
-101.06
-101.51
-106.52
-116.24
-129.61
-144.03
-155.16
-157.69
-147.20
-122.41
-86.51
-46.59
-11.17
13.00
23.38
22.01
13.78
3.74
-5.06
-12.07
-18.07
-23.36
-26.55
-24.89
-15.96
0.40
21.23
41.30
55.38
60.72
58.08
51.05
43.91
39.56
38.61
40.08
42.82
46.68
52.71
62.18
75.53
91.63
108.07
121.91
130.45
131.71
124.81
110.29
90.22
68.05
47.62
31.90
21.69
15.27
9.06
-0.87
-17.08
-39.96
-67.76
-97.51
-126.07
-150.95
-170.88
-185.87
-196.90
-205.16
-211.05
-213.24
-208.55
-193.11
-164.14
-121.95
-70.47
-16.49
32.68
71.71
98.74
115.27
124.80
130.97
136.20
141.46
146.78
151.91
156.59
160.44
162.53
161.12
154.12
139.76
117.62
89.17
57.63
27.14
1.51
-16.91
-27.88
-33.24
-36.35
-40.99
-50.06
-64.47
-82.66
-101.08
-115.62
-123.27
-123.42
-117.96
-110.34
-103.94
-100.66
-100.30
-100.96
-100.11
-95.75
-87.21
-75.36
-62.14
-50.03
-41.28
-37.37
-38.58
-43.88
-51.19
-57.99
-62.08
-62.20
-58.38
-51.71
-43.88
-36.56
-30.97
-27.71
-26.80
-27.87
-30.30
-33.35
-36.18
-38.04
-38.38
-37.02
-34.23
-30.71
-27.38
-24.99
-23.75
-23.15
-22.10
-19.53
-15.01
-9.20
-3.71
-0.44
-0.73
-4.85
-11.97
-20.60
-29.07
-35.85
-39.82
-40.46
-38.10
-34.01
-30.21
-28.64
-30.10
-33.58
-36.42
-35.35
-28.01
-13.89
5.45
27.17
48.26
66.30
79.74
87.78
90.23
87.66
81.52
74.01
67.50
63.65
62.75
63.48
63.74
61.69
56.73
49.72
42.61
37.59
36.31
39.43
46.60
56.72
68.38
80.33
91.68
102.00
111.29
119.73
127.51
134.65
141.05
146.53
150.91
154.02
155.72
155.69
153.29
147.54
137.27
121.67
100.89
76.62
52.05
30.92
16.15
8.52
6.30
6.03
4.10
-1.73
-11.60
-23.84
-36.07
-46.29
-53.65
-58.44
-61.78
-65.13
-69.75
-76.23
-84.22
-92.45
-99.23
-103.15
-103.66
-101.24
-96.90
-91.44
-84.93
-76.87
-66.83
-55.15
-43.30
-33.34
-27.05
-25.08
-26.76
-30.58
-35.05
-39.40
-43.64
-48.22
-53.43
-59.09
-64.47
-68.64
-70.85
-70.80
-68.82
-65.53
-61.52
-56.68
-50.07
-40.15
-25.62
-6.46
15.62
37.41
55.37
66.88
71.19
69.34
63.42
55.55
47.34
39.77
33.49
29.08
26.95
27.11
29.11
32.19
35.44
38.15
39.81
40.09
38.93
36.49
33.33
30.27
28.16
27.60
28.60
30.54
32.43
33.32
32.50
29.72
25.03
18.81
11.73
4.85
-0.42
-2.64
-0.83
4.89
13.27
22.17
29.39
33.42
33.92
31.53
27.44
22.75
18.11
13.83
10.10
7.14
5.19
4.25
4.07
4.22
4.41
4.72
5.62
7.59
10.80
14.92
19.24
23.06
25.88
27.43
27.62
26.48
24.20
21.42
19.26
19.05
21.81
27.66
35.60
43.97
51.10
56.05
58.89
60.48
61.96
64.19
67.47
71.48
75.52
78.70
80.11
78.99
74.86
67.47
57.01
44.11
29.95
16.01
3.67
-6.44
-14.74
-22.78
-32.50
-45.15
-60.37
-75.95
-88.60
-95.35
-94.92
-88.19
-77.68
-66.09
-54.92
-43.87
-31.35
-15.74
3.43
24.91
46.17
64.30
77.14
83.82
84.73
80.90
73.40
62.81
49.24
32.70
13.66
-6.54
-25.68
-41.05
-50.17
-51.55
-45.05
-31.61
-12.47
11.80
41.79
78.87
123.86
175.43
229.13
277.78
313.49
330.23
326.10
303.78
269.25
229.16
188.49
149.45
111.93
74.83
37.44
-0.01
-36.53
-71.08
-103.15
-132.78
-160.24
-185.48
-207.76
-225.67
-237.37
-241.28
-236.69
-224.26
-205.97
-184.79
-163.78
-145.32
-130.41
-118.59
-108.19
-97.13
-83.75
-67.46
-48.99
-30.12
-12.94
0.90
10.69
16.80
20.46
23.29
27.06
33.29
42.66
54.50
66.41
74.38
73.74
60.74
34.22
-3.35
-46.24
-87.20
-119.91
-141.15
-151.77
-156.19
-160.35
-169.21
-184.74
-205.19
-225.99
-241.87
-249.16
-247.19
-238.18
-225.86
-213.65
-203.35
-194.96
-187.51
-180.16
-172.99
-166.86
-162.46
-159.43
-155.85
-148.77
-135.37
-114.47
-87.47
-58.35
-32.30
-13.72
-4.47
-3.11
-5.73
-8.01
-7.29
-3.77
0.01
0.85
-3.09
-11.37
-21.39
-29.83
-34.18
-33.40
-27.87
-18.63
-6.63
7.63
23.77
41.13
58.59
74.74
88.40
98.97
106.65
112.09
115.96
118.57
119.75
119.07
116.04
110.52
102.84
93.79
84.46
75.91
69.03
64.38
62.29
62.76
65.63
70.46
76.51
82.93
88.93
94.20
99.11
104.74
112.39
122.96
136.35
151.23
165.31
176.02
181.25
179.78
171.36
156.55
136.42
112.41
86.45
61.08
39.17
23.44
15.62
15.96
23.07
34.49
47.51
59.88
70.10
77.14
80.07
77.90
69.94
56.24
38.05
17.63
-2.41
-20.04
-34.48
-46.20
-56.51
-66.62
-77.02
-87.28
-96.46
-103.72
-108.87
-112.63
-116.32
-121.31
-128.32
-136.88
-145.25
-151.00
-151.83
-146.49
-135.36
-120.34
-104.17
-89.35
-77.46
-68.74
-62.53
-57.83
-53.90
-50.48
-47.63
-45.51
-44.23
-43.98
-45.06
-47.84
-52.60
-59.16
-66.76
-74.16
-80.07
-83.68
-85.03
-85.07
-85.30
-87.15
-91.44
-97.96
-105.54
-112.54
-117.54
-119.97
-120.33
-120.03
-120.79
-124.07
-130.67
-140.38
-151.78
-162.13
-167.70
-164.73
-150.83
-126.33
-94.68
-61.74
-33.68
-14.83
-6.01
-4.69
-6.34
-6.49
-2.42
6.17
17.58
29.14
38.27
43.30
43.85
40.93
36.62
33.32
32.83
35.69
41.10
47.62
54.42
62.36
74.19
93.49
123.07
163.19
210.67
259.35
301.31
328.42
333.67
312.59
264.77
195.37
115.51
40.95
-11.97
-31.39
-14.49
30.76
87.87
137.22
162.55
155.69
118.29
60.22
-4.09
-59.87
-96.19
-108.43
-99.05
-76.57
-52.70
-38.10
-38.37
-52.24
-71.56
-85.42
-84.30
-62.97
-21.77
34.53
99.58
167.70
234.98
300.08
361.32
416.01
460.39
489.98
500.28
488.65
454.96
401.79
335.86
264.01
192.26
125.19
64.94
11.44
-36.23
-79.54
-120.22
-158.11
-195.37
-236.02
-284.79
-338.90
-393.46
-441.75
-477.26
-510.21
-540.38
-563.09
-573.55
-560.55
-520.30
-454.93
-370.13
-273.75
-174.74
-80.25
1.54
63.28
101.28
115.56
109.79
89.69
61.16
29.66
2.87
-11.89
-9.08
12.36
45.99
79.27
98.04
92.31
60.44
10.88
-43.37
-89.51
-118.80
-128.32
-119.44
-95.66
-61.42
-21.83
18.22
53.50
79.82
95.35
101.42
102.23
103.50
109.94
123.22
141.58
160.34
173.96
178.22
171.51
154.98
132.11
107.85
87.88
77.72
81.36
99.65
129.25
163.07
192.36
209.50
210.47
195.45
167.84
132.26
92.92
52.99
15.11
-17.75
-42.34
-56.08
-58.47
-51.94
-41.17
-30.99
-24.20
-20.39
-16.84
-10.63
-0.84
10.77
20.76
26.25
26.50
23.18
19.10
16.48
15.55
14.68
11.42
4.10
-7.08
-19.84
-30.48
-35.46
-32.74
-22.72
-8.18
6.70
17.95
23.25
22.60
18.21
13.62
12.45
17.14
27.94
42.54
56.47
64.45
62.36
49.08
27.49
3.62
-15.55
-25.11
-24.43
-17.48
-11.18
-12.96
-28.37
-59.60
-104.83
-158.21
-210.30
-249.45
-264.59
-249.14
-204.20
-139.44
-70.56
-13.46
21.45
32.53
25.99
12.03
0.27
-2.91
5.34
25.41
56.14
94.61
135.68
172.36
197.52
206.27
198.05
176.51
147.54
116.62
86.75
57.98
28.67
-2.69
-36.01
-69.21
-98.84
-121.30
-133.62
-134.31
-123.59
-103.45
-77.43
-49.88
-25.11
-6.47
4.10
6.18
0.72
-10.32
-24.22
-37.85
-47.87
-50.87
-43.82
-24.70
6.67
47.74
92.98
134.56
163.92
174.34
163.37
133.81
92.85
49.63
12.33
-13.87
-27.18
-28.48
-20.11
-4.98
13.44
30.75
41.68
40.71
23.61
-10.50
-58.02
-110.80
-158.05
-189.73
-199.92
-188.29
-159.35
-119.54
-74.81
-29.96
10.75
42.33
59.74
60.20
45.64
22.73
0.05
-16.14
-24.51
-27.76
-29.21
-29.71
-27.33
-19.90
-8.22
3.30
9.16
6.61
-2.19
-11.78
-17.01
-16.58
-13.79
-13.89
-20.21
-31.66
-43.16
-48.41
-43.55
-29.21
-10.75
3.31
3.99
-15.14
-55.10
-109.99
-167.83
-214.07
-237.03
-232.74
-206.44
-170.11
-137.05
-116.71
-111.80
-119.02
-132.20
-145.15
-153.26
-153.50
-144.10
-125.14
-99.25
-71.47
-47.73
-32.14
-24.82
-21.89
-17.39
-6.75
11.08
33.61
56.75
77.22
94.32
109.68
125.47
142.28
158.06
169.24
173.21
170.83
167.10
169.56
184.55
213.06
249.38
282.70
301.86
300.19
277.93
241.13
197.80
154.01
110.83
65.40
14.43
-41.84
-97.16
-140.16
-158.13
-143.07
-95.68
-26.69
46.43
105.41
137.64
139.98
118.54
84.73
49.90
21.59
2.67
-6.40
-5.13
8.02
34.60
74.04
122.35
172.13
214.85
243.19
252.94
243.29
216.05
174.92
124.33
68.78
12.20
-42.93
-95.89
-146.96
-196.02
-241.52
-279.82
-306.18
-316.59
-309.24
-285.11
-247.64
-200.99
-148.37
-91.31
-30.43
32.40
92.30
141.10
169.83
172.35
148.65
105.60
54.42
6.20
-32.38
-60.92
-84.43
-109.80
-142.28
-182.60
-226.40
-265.64
-291.50
-297.65
-282.36
-249.25
-205.40
-158.79
-115.14
-76.43
-41.02
-5.39
33.21
75.12
115.95
149.55
169.24
170.30
151.73
116.20
68.90
15.86
-37.28
-85.88
-126.24
-156.11
-174.83
-183.30
-183.48
-177.36
-165.93
-149.03
-126.06
-97.12
-63.95
-29.57
3.21
32.93
60.19
86.85
114.67
143.94
172.94
198.18
215.83
223.76
222.81
216.67
209.67
204.34
199.75
192.63
180.20
162.87
144.69
131.09
125.38
126.42
129.13
127.38
117.08
97.65
71.66
43.20
16.34
-6.17
-23.36
-36.07
-46.12
-54.79
-61.12
-61.47
-51.30
-28.10
5.90
43.40
74.63
91.50
90.94
75.26
49.69
19.59
-11.72
-42.44
-70.68
-93.52
-107.72
-111.55
-106.80
-99.00
-95.71
-103.10
-122.72
-150.22
-176.70
-192.45
-191.27
-173.35
-144.81
-114.65
-90.75
-76.81
-71.71
-71.16
-70.08
-64.13
-50.33
-27.19
4.87
42.77
80.57
110.35
124.63
119.05
93.68
52.28
0.17
-57.63
-116.88
-172.75
-218.69
-246.73
-250.12
-226.82
-181.46
-124.44
-68.06
-22.22
8.35
23.89
27.48
22.53
11.84
-1.80
-14.87
-23.43
-24.99
-20.18
-12.81
-7.72
-7.74
-11.89
-15.92
-15.38
-8.95
0.24
6.16
3.02
-11.80
-36.73
-67.06
-96.96
-121.06
-135.26
-137.22
-126.87
-106.86
-82.34
-59.56
-43.77
-37.50
-39.96
-47.92
-57.45
-65.32
-69.62
-69.46
-64.39
-54.10
-38.69
-18.90
3.90
28.57
54.84
83.63
116.37
153.33
192.17
227.58
252.82
262.43
254.73
232.85
203.35
173.42
148.16
129.42
116.48
107.70
101.91
98.40
96.02
92.02
82.02
61.60
28.90
-13.63
-59.30
-99.12
-125.21
-133.74
-126.10
-107.97
-86.69
-68.28
-55.85
-49.81
-49.07
-52.28
-58.10
-64.69
-69.15
-67.82
-57.59
-37.32
-8.54
25.12
59.04
88.98
112.41
128.70
138.92
145.23
150.42
157.65
169.81
188.83
214.89
245.87
277.70
305.36
324.48
332.44
329.07
316.30
297.39
275.99
255.30
237.87
225.31
218.35
216.45
217.84
219.82
219.62
215.49
207.22
196.19
184.72
175.14
168.95
166.36
166.14
165.78
162.40
153.67
138.95
119.36
97.26
75.11
54.27
34.75
15.92
-2.14
-17.85
-28.40
-31.25
-25.69
-13.55
1.41
15.17
25.10
30.72
32.89
32.61
29.62
21.97
6.71
-18.80
-56.00
-104.67
-163.12
-228.44
-296.16
-360.30
-413.78
-449.68
-463.21
-453.23
-422.67
-377.28
-323.40
-265.81
-206.68
-146.27
-84.57
-23.12
34.60
84.47
124.01
154.15
179.02
203.47
229.51
254.14
269.21
264.97
234.99
180.17
109.54
37.07
-23.84
-65.82
-89.62
-102.97
-116.27
-137.86
-171.19
-214.49
-262.54
-309.02
-348.35
-376.17
-389.28
-385.67
-365.24
-330.65
-287.28
-241.73
-199.10
-160.67
-123.81
-84.31
-39.96
6.91
49.80
81.18
96.53
96.51
86.06
71.14
55.39
39.06
20.29
-2.47
-28.79
-56.72
-84.31
-110.87
-136.82
-162.14
-184.97
-201.63
-208.28
-203.12
-187.58
-165.71
-142.17
-120.28
-100.95
-83.23
-65.52
-46.73
-26.50
-4.65
19.35
46.31
76.27
107.11
133.69
148.75
145.42
120.24
74.76
15.15
-50.50
-114.71
-172.13
-219.15
-252.80
-270.31
-269.91
-252.44
-222.42
-187.33
-155.17
-131.43
-117.38
-110.36
-105.75
-99.28
-88.59
-73.32
-54.30
-32.57
-8.77
16.96
44.67
74.12
104.41
133.88
160.26
181.22
195.05
201.15
200.30
194.42
185.78
176.15
166.34
156.36
146.17
136.34
128.15
123.01
121.46
122.48
123.63
121.99
115.44
103.54
87.68
70.40
54.43
41.89
33.84
30.32
30.62
33.43
37.25
40.68
42.64
42.74
41.12
38.40
35.46
33.17
32.27
33.21
36.00
40.15
44.84
49.13
52.31
54.08
54.53
53.91
52.38
49.92
46.43
41.99
36.88
31.63
26.76
22.64
19.42
17.12
15.87
15.96
17.86
21.89
27.94
35.29
42.65
48.49
51.54
51.17
47.57
41.59
34.33
26.72
19.26
12.03
4.95
-1.98
-8.63
-14.72
-20.05
-24.49
-28.09
-30.79
-32.55
-33.19
-32.66
-31.08
-28.87
-26.62
-24.87
-23.93
-23.88
-24.58
-25.76
-27.17
-28.52
-29.51
-29.87
-29.52
-28.55
-27.30
-26.20
-25.52
-25.25
-25.04
-24.43
-23.02
-20.81
-18.11
-15.41
-13.06
-11.09
-9.21
-7.03
-4.23
-0.73
3.28
7.43
11.33
14.68
17.29
19.11
20.10
20.28
19.75
18.72
17.56
16.75
16.68
17.59
19.36
21.61
23.80
25.45
26.25
26.18
25.38
24.08
22.43
20.54
18.47
16.24
13.86
11.30
8.58
5.78
3.16
1.19
0.49
1.58
4.66
9.31
14.51
18.88
21.07
20.25
16.46
10.81
5.37
2.93
6.30
17.62
37.59
64.99
96.82
128.98
157.47
179.49
194.13
202.24
205.54
205.63
203.37
198.99
192.60
184.93
177.41
171.65
168.64
168.08
168.47
167.66
163.90
156.54
146.33
135.06
124.81
117.21
112.82
111.13
110.85
110.34
107.91
101.64
89.44
69.34
40.53
4.21
-36.16
-75.86
-110.98
-140.48
-166.83
-194.32
-225.97
-260.65
-292.69
-314.19
-318.79
-304.72
-275.45
-237.85
-199.21
-165.09
-138.68
-121.49
-114.19
-116.67
-127.45
-143.30
-159.76
-172.63
-179.61
-180.85
-178.31
-174.17
-169.39
-163.31
-154.42
-141.71
-125.79
-109.02
-94.47
-84.63
-80.59
-82.07
-88.19
-98.30
-112.12
-129.38
-149.39
-170.76
-192.00
-212.18
-231.26
-249.67
-267.43
-283.19
-294.13
-296.93
-289.09
-270.15
-242.07
-208.71
-174.84
-144.86
-121.77
-106.43
-97.28
-90.57
-81.44
-65.55
-40.71
-8.03
28.30
62.27
87.97
101.43
101.72
91.20
75.07
60.07
52.72
57.63
76.24
106.56
144.11
183.64
220.84
253.39
280.85
303.67
322.12
335.79
343.72
345.01
339.48
328.07
312.86
296.76
282.96
274.04
271.01
272.75
276.44
278.59
276.60
269.65
258.63
245.27
231.08
216.70
202.14
187.30
172.46
158.34
145.70
134.84
125.22
115.44
103.38
86.86
64.50
36.66
5.97
-23.07
-45.61
-58.41
-61.51
-58.56
-55.42
-57.62
-67.77
-84.25
-101.85
-113.90
-115.07
-103.46
-81.12
-53.07
-25.49
-3.41
10.73
17.49
19.82
21.76
26.94
37.44
53.09
71.36
88.14
99.23
102.07
96.93
86.65
74.98
64.36
54.46
42.40
24.38
-1.97
-36.27
-75.35
-114.36
-148.08
-171.54
-180.07
-169.66
-138.32
-88.45
-28.28
29.08
69.44
83.05
68.72
34.22
-7.83
-46.34
-76.50
-100.30
-122.62
-146.11
-168.24
-183.00
-185.65
-177.39
-166.50
-165.03
-183.07
-223.75
-281.61
-344.90
-400.32
-437.60
-452.08
-444.70
-419.99
-383.48
-339.47
-289.87
-234.66
-173.90
-110.07
-49.06
1.57
36.04
53.56
59.50
63.27
74.07
96.33
127.87
160.85
186.52
199.78
201.44
196.90
192.66
192.68
195.87
196.51
186.43
159.99
116.91
62.47
4.81
-48.20
-90.67
-119.70
-134.26
-135.19
-122.56
-96.59
-58.92
-15.31
25.34
55.30
71.44
77.46
80.51
89.65
111.23
147.16
194.18
240.70
276.41
294.30
304.43
312.71
320.81
320.44
306.03
275.48
230.42
175.29
114.38
50.22
-17.73
-88.34
-157.11
-215.54
-254.77
-268.46
-253.95
-212.63
-148.86
-70.54
13.71
94.62
162.90
209.23
225.82
208.75
158.64
80.50
-18.18
-127.10
-233.76
-324.22
-386.16
-412.10
-402.01
-363.95
-311.42
-258.78
-215.78
-185.29
-163.98
-146.07
-126.56
-102.74
-74.00
-40.88
-4.56
33.12
69.28
100.31
123.06
136.21
141.46
143.40
147.96
160.40
183.27
214.97
249.31
276.26
284.52
265.31
216.28
143.44
60.68
-13.90
-63.82
-80.21
-65.29
-31.10
5.81
31.74
41.42
39.44
36.99
45.76
72.83
118.29
176.32
238.09
294.42
336.94
358.85
356.04
328.57
281.94
226.56
174.58
135.53
112.66
102.83
98.66
92.14
77.30
51.09
12.70
-36.39
-92.00
-146.95
-192.15
-219.49
-224.65
-209.04
-179.47
-145.95
-118.19
-102.51
-100.67
-110.41
-127.39
-147.22
-166.01
-180.13
-185.93
-180.37
-162.75
-136.72
-110.69
-95.78
-101.40
-130.24
-175.52
-222.91
-256.19
-263.97
-243.90
-202.53
-151.64
-103.70
-68.66
-51.86
-54.63
-74.73
-107.29
-146.21
-186.01
-223.13
-255.94
-283.65
-303.55
-312.43
-308.28
-293.23
-274.34
-261.31
-261.41
-274.95
-294.53
-306.69
-299.84
-268.83
-216.10
-148.43
-72.22
9.58
99.63
192.00
282.44
361.87
420.09
449.81
449.54
423.36
378.76
323.55
263.62
204.36
149.74
103.23
67.17
41.53
23.32
7.88
-8.65
-27.44
-44.71
-54.34
-49.87
-27.85
10.30
58.61
109.01
154.59
191.03
217.89
237.01
251.06
261.52
267.61
266.41
254.27
228.59
187.85
132.95
67.65
-0.67
-62.56
-109.70
-138.43
-151.63
-157.21
-165.09
-181.48
-205.09
-225.53
-228.62
-203.96
-152.28
-88.66
-28.85
18.00
52.05
78.43
103.23
129.21
154.01
171.50
175.81
165.14
142.04
112.22
82.16
56.89
38.43
25.49
14.90
3.83
-8.12
-19.30
-27.04
-29.08
-24.59
-14.90
-3.17
6.94
12.77
14.04
12.27
9.85
8.84
10.15
13.23
16.43
17.99
17.01
14.01
10.44
7.92
7.57
9.69
13.85
19.10
24.52
29.39
33.40
36.47
38.60
39.87
40.28
39.82
38.51
36.48
34.03
31.52
29.24
27.23
25.29
22.96
19.73
15.03
8.23
-1.50
-15.02
-32.90
-54.87
-79.43
-104.01
-125.58
-141.69
-151.26
-154.73
-153.59
-149.57
-144.02
-137.50
-130.12
-121.87
-113.03
-104.18
-96.00
-88.81
-82.38
-75.98
-68.56
-59.35
-48.11
-35.39
-22.38
-10.55
-1.11
5.43
9.41
11.87
14.01
16.71
20.16
23.85
26.93
28.63
28.73
27.67
26.36
25.75
26.43
28.47
31.42
34.68
37.73
40.34
42.46
44.15
45.38
45.97
45.84
45.09
44.19
43.67
43.95
44.94
46.01
46.24
44.75
41.22
35.94
29.75
23.64
18.37
14.21
11.04
8.57
6.58
5.06
4.13
3.91
4.30
5.01
5.72
6.24
6.66
7.27
8.29
9.67
11.08
12.04
12.26
11.80
11.04
10.53
10.76
12.00
14.35
17.76
21.98
26.52
30.64
33.38
33.81
31.37
26.09
18.67
10.22
1.92
-5.39
-11.41
-16.33
-20.57
-24.48
-28.10
-31.17
-33.26
-34.05
-33.45
-31.61
-28.75
-25.07
-20.75
-16.06
-11.49
-7.77
-5.63
-5.54
-7.40
-10.58
-14.10
-17.07
-18.98
-19.83
-20.03
-20.14
-20.64
-21.74
-23.38
-25.23
-26.86
-27.85
-27.94
-27.03
-25.24
-22.80
-20.02
-17.20
-14.60
-12.43
-10.85
-9.84
-9.20
-8.46
-7.06
-4.54
-0.83
3.62
8.01
11.47
13.43
13.80
12.99
11.63
10.29
9.28
8.58
8.02
7.51
7.16
7.25
8.04
9.63
11.83
14.24
16.45
18.26
19.72
21.05
22.39
23.67
24.63
24.96
24.66
24.04
23.70
24.20
25.76
28.13
30.69
32.83
34.21
34.85
35.00
34.81
34.13
32.49
29.39
24.63
18.53
11.82
5.36
-0.29
-4.98
-8.93
-12.54
-16.06
-19.57
-22.95
-26.04
-28.72
-30.91
-32.58
-33.61
-33.92
-33.43
-32.21
-30.38
-28.14
-25.71
-23.32
-21.13
-19.29
-17.82
-16.63
-15.58
-14.41
-12.92
-11.04
-8.87
-6.66
-4.79
-3.64
-3.40
-4.08
-5.38
-6.84
-8.01
-8.58
-8.45
-7.75
-6.67
-5.36
-3.89
-2.23
-0.36
1.67
3.76
5.78
7.62
9.23
10.62
11.73
12.48
12.72
12.32
11.23
9.54
7.45
5.26
3.25
1.62
0.40
-0.52
-1.32
-2.10
-2.94
-3.82
-4.64
-5.31
-5.80
-6.13
-6.42
-6.75
-7.16
-7.61
-7.98
-8.10
-7.83
-7.10
-5.94
-4.49
-2.95
-1.49
-0.28
0.61
1.16
1.37
1.25
0.80
0.04
-0.94
-1.94
-2.60
-2.58
-1.52
0.69
3.94
7.87
12.03
16.02
19.55
22.61
25.18
27.29
28.79
29.50
29.21
27.85
25.52
22.39
18.71
14.58
10.11
5.43
0.86
-3.08
-5.86
-7.18
-7.18
-6.48
-5.97
-6.43
-8.22
-11.12
-14.47
-17.47
-19.54
-20.49
-20.58
-20.34
-20.30
-20.82
-22.01
-23.78
-25.95
-28.34
-30.88
-33.60
-36.58
-39.91
-43.74
-48.33
-54.11
-61.58
-71.11
-82.67
-95.82
-109.94
-124.71
-140.39
-157.82
-177.60
-199.23
-220.37
-237.00
-244.49
-239.28
-220.33
-189.60
-151.71
-112.72
-78.82
-55.10
-44.69
-48.14
-63.31
-85.57
-108.71
-126.39
-133.65
-128.05
-109.79
-81.20
-45.48
-5.76
35.53
76.76
117.00
155.90
193.59
230.31
265.75
298.55
326.23
345.88
355.22
353.65
342.53
324.62
303.02
280.39
258.50
238.34
220.47
205.09
191.99
180.30
168.50
154.71
137.33
115.79
91.18
66.32
45.19
31.49
27.03
30.33
36.69
39.50
32.45
11.58
-23.69
-70.74
-124.70
-179.54
-228.89
-266.67
-287.69
-288.38
-267.44
-226.28
-169.05
-102.27
-33.93
27.80
76.24
107.81
122.85
125.14
120.13
112.67
105.41
98.33
89.58
76.76
57.99
32.55
1.01
-34.75
-71.60
-105.49
-132.30
-149.01
-154.69
-150.65
-139.92
-126.20
-113.00
-103.19
-98.87
-101.23
-110.22
-124.22
-140.15
-154.35
-163.73
-166.89
-164.35
-157.78
-148.74
-137.67
-123.86
-106.41
-85.52
-63.17
-42.51
-26.31
-15.00
-5.77
6.91
28.99
64.14
111.94
167.88
225.16
277.23
319.71
350.79
370.37
378.81
376.34
363.37
341.18
312.43
281.00
251.44
227.93
213.52
209.23
213.43
221.79
228.26
227.00
214.78
192.37
163.98
135.06
109.32
86.98
65.44
41.62
14.74
-12.55
-35.32
-49.24
-53.24
-50.08
-44.52
-40.30
-38.20
-36.49
-33.83
-32.38
-38.60
-60.46
-102.39
-160.75
-223.10
-272.36
-293.89
-281.91
-242.11
-188.97
-139.62
-107.32
-97.22
-105.85
-123.73
-139.47
-143.95
-133.22
-108.97
-76.89
-43.74
-14.48
9.30
28.88
46.40
62.68
76.43
84.96
86.03
79.18
66.21
50.15
33.58
17.26
-0.13
-20.94
-46.82
-77.03
-108.28
-135.23
-152.03
-154.50
-141.95
-118.08
-90.12
-66.40
-53.25
-53.24
-64.33
-80.24
-92.60
-93.69
-79.05
-49.12
-9.32
31.54
62.98
75.82
65.29
32.19
-18.04
-77.72
-139.59
-198.32
-243.91
-267.06
-261.42
-225.25
-162.89
-83.80
0.50
79.66
146.51
195.85
228.90
247.46
253.38
248.31
233.86
211.65
183.16
149.70
113.82
77.99
42.97
9.29
-22.60
-52.02
-78.38
-101.58
-122.15
-140.83
-158.51
-177.52
-199.35
-224.43
-251.75
-279.41
-305.63
-329.24
-349.49
-357.31
-346.53
-314.38
-263.55
-200.88
-134.51
-71.46
-16.47
27.84
60.00
77.39
79.42
66.51
41.78
11.72
-14.93
-29.64
-26.69
-4.85
31.66
75.48
118.05
153.14
178.37
194.73
205.16
213.02
221.21
231.24
243.94
259.07
275.50
290.92
301.90
304.60
295.58
272.70
235.43
185.35
125.71
60.93
-4.74
-68.71
-130.80
-192.56
-255.13
-316.98
-372.70
-414.35
-434.41
-429.41
-401.68
-358.23
-307.61
-256.43
-207.83
-162.32
-120.05
-82.14
-50.61
-26.63
-8.80
6.81
24.99
48.68
77.42
107.66
135.03
156.70
172.93
186.87
203.05
225.74
257.60
298.81
346.25
393.49
431.68
452.24
450.13
426.42
388.41
346.87
311.38
286.10
268.37
250.95
226.49
191.68
148.78
103.84
62.94
28.80
-0.34
-29.10
-61.68
-99.21
-138.33
-172.31
-193.55
-196.15
-177.47
-138.18
-81.48
-12.77
60.43
128.68
181.72
211.38
215.11
198.17
172.76
153.64
152.16
171.61
206.47
245.55
277.27
294.18
294.64
281.46
259.03
231.04
199.65
166.23
132.25
99.64
70.39
45.62
25.12
7.65
-8.27
-23.58
-38.11
-50.62
-59.28
-62.56
-60.03
-52.64
-42.91
-34.35
-30.82
-35.80
-51.80
-80.26
-121.85
-177.17
-246.62
-329.58
-422.84
-519.48
-609.30
-681.14
-726.33
-741.59
-729.86
-698.59
-656.48
-610.45
-564.16
-518.64
-473.96
-430.71
-390.21
-353.82
-321.95
-293.73
-267.62
-242.33
-217.58
-194.24
-173.99
-158.30
-147.58
-140.91
-136.15
-130.75
-122.56
-110.53
-94.96
-77.31
-59.44
-42.90
-28.34
-15.29
-2.58
11.18
26.83
44.31
62.62
80.22
95.82
109.00
120.54
132.27
146.44
164.98
188.80
217.38
248.84
280.28
308.44
330.39
344.16
349.22
346.66
338.85
328.64
318.41
309.33
301.23
293.21
284.45
274.99
265.70
257.66
251.03
244.43
234.95
219.25
195.23
163.37
127.46
94.13
71.54
66.90
83.87
120.41
168.51
216.32
252.07
268.24
264.06
245.02
219.74
195.85
176.99
162.50
149.33
134.69
117.84
99.75
81.69
63.65
43.83
19.52
-11.40
-49.48
-93.66
-141.58
-190.48
-237.41
-279.20
-312.48
-334.02
-341.49
-334.39
-314.44
-285.19
-251.06
-216.13
-183.31
-154.22
-129.48
-109.28
-93.56
-81.94
-73.54
-67.02
-60.94
-54.29
-46.73
-38.48
-29.93
-21.12
-11.73
-1.28
10.28
22.28
33.43
42.18
47.28
48.10
44.68
37.61
28.05
17.59
7.97
0.41
-5.02
-9.57
-15.22
-23.56
-34.90
-48.08
-60.98
-71.51
-78.20
-80.39
-78.33
-73.65
-69.65
-70.88
-81.57
-103.15
-132.21
-160.66
-178.40
-177.50
-155.71
-117.41
-71.43
-27.22
8.55
33.54
48.95
57.62
62.25
64.72
66.24
67.77
70.02
72.85
74.77
72.92
64.15
46.96
23.19
-1.81
-20.85
-27.95
-20.99
-2.79
20.27
41.10
54.76
59.79
57.67
51.16
42.70
33.68
24.71
16.19
8.73
3.04
-0.48
-1.94
-2.05
-1.79
-1.96
-2.70
-3.24
-2.07
2.39
10.89
22.71
35.60
46.51
52.79
53.29
48.76
41.44
34.14
29.20
27.60
28.47
29.44
27.49
20.48
8.44
-6.17
-19.38
-27.78
-30.39
-29.22
-27.80
-28.73
-31.72
-33.71
-31.10
-22.67
-10.99
-1.32
1.31
-5.03
-18.35
-34.27
-48.85
-60.22
-68.34
-73.04
-72.41
-63.40
-44.57
-19.10
4.70
16.65
10.04
-13.70
-44.62
-68.37
-72.73
-53.07
-13.55
36.31
87.39
135.30
180.89
226.91
273.38
314.87
341.99
345.59
321.49
273.06
210.00
144.03
84.31
34.56
-6.56
-42.30
-74.62
-102.87
-124.85
-139.42
-148.01
-153.80
-159.08
-162.72
-159.45
-141.83
-104.16
-46.17
25.52
99.32
162.99
208.18
233.30
242.91
244.61
244.85
245.95
245.44
238.37
220.63
191.69
155.29
117.63
84.27
58.02
38.44
23.15
9.97
-1.89
-11.83
-18.88
-23.10
-26.19
-30.99
-40.27
-55.40
-75.77
-99.32
-123.73
-147.61
-170.68
-193.18
-214.67
-233.32
-246.15
-250.32
-244.62
-230.34
-210.96
-190.70
-172.92
-159.23
-149.56
-143.01
-138.81
-136.66
-136.44
-137.56
-138.70
-137.97
-133.87
-126.11
-116.16
-106.67
-100.18
-97.53
-97.16
-95.72
-89.71
-77.28
-59.12
-37.92
-16.81
2.38
19.78
36.91
55.34
75.34
95.28
112.29
123.44
126.93
122.73
112.28
97.79
81.50
65.33
50.89
39.77
33.44
32.73
37.25
45.10
53.37
59.39
62.12
62.70
63.70
67.24
73.11
78.12
77.21
65.98
43.33
12.66
-19.06
-43.84
-55.93
-53.82
-40.32
-21.02
-1.80
13.09
21.77
24.04
20.31
10.96
-3.51
-21.65
-40.58
-56.25
-64.66
-63.54
-53.33
-37.02
-19.01
-3.47
6.74
10.43
7.91
0.69
-8.61
-16.49
-19.29
-14.58
-2.48
13.73
28.52
36.18
32.79
17.19
-9.21
-43.46
-81.69
-119.16
-150.10
-168.14
-167.94
-147.38
-108.96
-59.43
-7.71
37.92
71.93
92.50
101.13
101.99
100.69
103.05
113.78
135.00
165.59
201.35
236.03
263.12
277.78
277.25
260.93
230.04
186.67
133.77
74.43
11.92
-49.46
-103.17
-141.58
-158.10
-149.96
-120.92
-79.53
-36.73
-1.65
22.03
37.80
52.85
74.42
106.94
150.13
201.78
258.51
316.23
370.71
418.74
456.69
481.09
489.60
480.78
457.16
424.19
388.73
348.86
306.18
264.08
226.81
205.00
197.51
199.83
207.64
215.40
220.07
220.87
216.99
207.04
189.25
160.90
121.45
71.98
13.63
-51.55
-120.10
-188.62
-254.33
-315.31
-371.40
-422.07
-466.66
-506.57
-542.98
-575.85
-604.30
-626.96
-642.56
-650.95
-651.90
-645.25
-633.97
-620.81
-607.14
-592.91
-577.10
-558.91
-538.69
-517.41
-496.27
-480.23
-473.43
-477.83
-492.59
-514.65
-540.15
-565.65
-588.05
-580.31
-524.29
-414.34
-261.59
-89.31
78.07
223.42
339.19
425.62
487.74
528.69
551.63
559.84
556.89
546.67
532.49
516.61
500.13
483.25
464.23
441.32
416.11
394.22
382.59
385.00
398.89
415.59
424.15
414.95
385.51
341.35
293.29
251.96
223.22
206.90
198.99
194.74
189.96
184.71
178.68
171.10
160.61
145.87
126.42
103.49
79.73
58.04
40.54
27.62
18.34
11.05
4.12
-3.39
-11.56
-19.90
-27.91
-35.68
-44.20
-54.59
-67.61
-83.22
-100.68
-118.92
-137.28
-155.85
-175.38
-196.99
-221.07
-247.09
-273.77
-299.68
-323.83
-345.61
-364.69
-380.89
-394.65
-407.16
-419.99
-433.79
-446.79
-453.98
-448.35
-423.86
-378.50
-315.94
-244.20
-172.27
-106.19
-47.13
7.71
62.14
117.76
172.47
221.25
258.39
279.44
282.53
268.65
241.47
206.90
172.10
144.03
127.40
123.26
128.70
138.22
146.04
147.94
142.08
128.41
107.94
82.27
54.04
27.21
6.34
-5.21
-7.01
-2.17
3.95
6.22
1.84
-9.04
-24.31
-41.42
-58.45
-74.16
-87.29
-96.16
-98.93
-94.55
-83.55
-68.08
-51.14
-35.26
-21.92
-11.52
-4.12
-0.11
-0.26
-5.25
-14.60
-26.18
-36.56
-42.31
-41.65
-35.36
-26.53
-18.92
-15.05
-14.78
-15.49
-13.48
-5.98
7.29
23.97
40.18
52.16
57.66
56.45
49.77
39.62
27.99
16.28
5.30
-4.80
-14.39
-23.99
-33.80
-43.25
-50.90
-54.82
-53.66
-47.52
-38.20
-28.70
-21.74
-18.61
-18.65
-19.87
-19.98
-17.51
-12.14
-4.38
5.02
15.57
26.88
38.20
48.01
54.27
55.12
49.97
39.89
27.47
15.79
7.15
2.27
0.17
-1.09
-3.30
-7.14
-11.88
-15.91
-17.75
-16.95
-14.24
-10.82
-7.37
-3.41
2.37
11.15
22.70
35.14
45.59
51.67
52.59
49.27
43.56
37.04
30.39
23.65
16.91
10.62
5.45
1.60
-1.48
-4.83
-9.11
-13.94
-17.95
-19.48
-17.83
-13.79
-9.32
-6.56
-6.76
-9.78
-14.41
-19.14
-22.83
-24.96
-25.59
-25.11
-24.09
-23.32
-23.73
-26.04
-30.30
-35.48
-39.61
-40.43
-36.46
-27.78
-16.16
-4.35
5.21
11.23
14.00
14.77
14.89
15.08
15.40
15.76
16.29
17.61
20.27
24.29
28.70
31.95
32.50
29.71
24.19
17.52
11.61
7.88
6.81
8.02
10.58
13.47
15.93
17.52
18.05
17.42
15.63
12.84
9.55
6.50
4.54
4.16
5.33
7.40
9.53
11.01
11.46
10.83
9.11
6.20
2.10
-2.72
-7.08
-9.27
-7.87
-2.72
4.67
11.54
15.24
14.46
9.96
4.08
-0.55
-2.32
-1.25
1.26
3.53
4.46
3.86
2.33
0.63
-0.62
-1.01
-0.33
1.50
4.15
6.80
8.27
7.78
5.56
3.21
3.14
7.32
15.98
27.15
37.15
42.16
40.01
31.01
17.76
4.00
-7.05
-13.63
-15.59
-13.87
-9.75
-4.30
1.44
6.26
8.65
7.06
0.72
-9.61
-21.51
-31.47
-36.22
-34.11
-25.93
-14.57
-3.92
2.81
4.33
1.60
-2.82
-6.08
-6.33
-3.39
1.47
6.39
9.90
11.57
11.93
11.94
12.21
12.68
12.74
11.81
9.86
7.50
5.81
5.59
7.00
9.26
11.10
11.30
9.31
5.41
0.63
-3.61
-6.01
-5.73
-2.73
2.17
7.47
11.45
12.90
11.63
8.63
5.51
3.77
3.86
4.97
5.49
3.99
0.29
-4.42
-7.98
-8.56
-5.63
-0.38
4.80
7.45
6.30
1.97
-3.28
-6.50
-5.29
1.22
12.08
24.74
35.71
41.24
38.02
24.23
0.89
-27.12
-51.43
-62.37
-53.06
-23.11
19.72
61.63
88.03
89.42
65.22
23.56
-22.50
-60.37
-82.32
-87.02
-78.38
-62.80
-46.37
-33.30
-25.46
-22.61
-23.30
-25.67
-28.25
-30.37
-31.97
-33.16
-33.64
-32.48
-28.61
-21.66
-12.61
-3.89
1.49
1.46
-3.89
-12.18
-19.73
-23.35
-21.81
-16.21
-9.05
-2.79
1.32
3.57
4.95
6.20
7.26
7.49
6.48
4.60
3.00
2.96
5.10
8.97
13.37
16.99
18.99
19.23
18.03
15.91
13.45
11.29
10.20
10.84
13.39
17.25
21.19
23.85
24.30
22.45
18.87
14.36
9.46
4.33
-0.95
-6.03
-10.20
-12.62
-12.92
-11.44
-9.18
-7.39
-6.88
-7.82
-9.70
-11.81
-13.53
-14.52
-14.60
-13.67
-11.82
-9.44
-7.22
-5.94
-5.96
-6.90
-7.76
-7.47
-5.63
-2.90
-0.54
0.41
-0.06
-0.69
0.28
4.01
10.15
16.85
21.73
23.05
20.69
16.20
12.00
10.17
11.58
15.45
19.92
22.85
22.83
19.61
14.17
8.30
3.82
1.97
2.95
5.94
9.39
11.75
12.01
10.27
7.52
5.27
4.71
6.03
8.40
10.29
10.42
8.42
5.09
1.82
-0.18
-0.47
0.48
1.77
2.59
2.55
1.55
-0.44
-3.65
-8.22
-13.77
-19.27
-23.17
-24.17
-21.92
-17.20
-11.50
-6.21
-1.87
1.87
5.74
10.15
14.69
18.29
19.96
19.33
16.95
13.96
11.43
9.82
8.98
8.47
7.91
7.26
6.67
6.27
6.00
5.70
5.24
4.64
3.98
3.30
2.43
1.25
-0.27
-1.75
-2.57
-2.13
-0.16
3.10
7.04
10.93
14.40
17.53
20.83
24.79
29.31
33.36
35.09
32.46
24.23
10.79
-5.52
-21.05
-32.04
-35.98
-32.60
-23.95
-13.54
-5.09
-1.11
-2.06
-6.38
-11.37
-14.32
-13.56
-8.88
-1.40
6.94
13.89
17.55
16.69
11.07
1.41
-10.71
-23.33
-34.60
-43.19
-48.41
-50.03
-48.09
-42.74
-34.48
-24.25
-13.46
-3.73
3.53
7.45
7.95
5.52
1.13
-4.01
-8.76
-12.24
-13.95
-13.89
-12.51
-10.47
-8.46
-7.00
-6.37
-6.62
-7.60
-9.04
-10.48
-11.47
-11.56
-10.46
-8.18
-5.01
-1.47
1.93
4.95
7.75
10.68
13.96
17.21
19.55
19.94
17.89
13.93
9.59
6.63
6.11
7.87
10.61
12.72
13.16
11.97
9.97
8.12
6.93
6.25
5.63
4.84
4.00
3.52
3.68
4.24
4.59
4.06
2.47
0.30
-1.36
-1.52
0.25
3.39
6.55
8.29
7.67
4.80
0.74
-3.00
-5.24
-5.60
-4.69
-3.63
-3.50
-4.78
-7.12
-9.63
-11.28
-11.42
-9.97
-7.41
-4.57
-2.22
-0.83
-0.34
-0.37
-0.38
0.13
1.49
3.66
6.31
8.79
10.24
10.00
7.87
4.36
0.67
-1.68
-1.53
1.44
6.61
12.53
17.67
20.89
21.85
20.90
18.89
16.58
14.47
12.67
11.05
9.32
7.40
5.33
3.30
1.50
0.05
-0.95
-1.50
-1.61
-1.43
-1.25
-1.56
-2.87
-5.42
-9.07
-13.28
-17.35
-20.60
-22.57
-23.03
-21.94
-19.45
-16.03
-12.52
-9.99
-9.20
-10.17
-11.92
-12.93
-11.83
-8.23
-2.95
2.46
6.51
8.57
9.08
9.16
9.79
11.33
13.35
14.99
15.46
14.44
12.17
9.21
6.30
3.98
2.61
2.23
2.60
3.24
3.58
3.15
1.75
-0.51
-3.24
-5.97
-8.26
-9.86
-10.55
-10.22
-8.76
-6.26
-3.04
0.17
2.45
2.96
1.31
-2.17
-6.54
-10.70
-13.63
-14.87
-14.55
-13.33
-12.09
-11.86
-13.38
-17.07
-22.69
-29.22
-35.03
-38.30
-37.77
-33.27
-25.96
-17.89
-11.18
-7.18
-6.10
-7.17
-9.19
-11.04
-12.07
-11.90
-10.33
-7.29
-3.01
1.87
6.07
8.00
6.36
0.43
-9.47
-21.63
-32.94
-39.29
-35.97
-18.89
14.06
61.35
116.97
171.37
214.39
238.90
243.14
230.71
207.77
179.85
149.63
116.74
79.66
38.05
-6.27
-50.43
-92.96
-135.46
-180.93
-230.72
-281.77
-326.09
-353.58
-356.38
-332.61
-287.44
-231.53
-175.90
-128.01
-90.28
-61.25
-38.26
-19.41
-4.79
7.95
18.53
25.76
28.45
26.47
20.46
11.18
-0.87
-15.56
-32.47
-51.11
-70.02
-87.24
-100.79
-109.66
-115.47
-118.83
-120.74
-122.10
-123.77
-125.82
-127.87
-129.13
-129.17
-128.11
-126.27
-124.20
-122.06
-119.73
-116.18
-111.91
-106.81
-100.99
-94.78
-88.56
-82.86
-78.07
-74.42
-71.80
-69.89
-67.99
-65.59
-62.37
-58.19
-53.16
-47.49
-41.40
-34.95
-28.08
-20.41
-11.72
-2.09
8.10
18.14
27.32
35.15
41.65
47.24
52.81
59.04
66.13
73.67
80.75
86.52
90.64
93.68
97.00
102.34
110.96
123.04
137.53
152.51
166.22
177.97
188.54
199.96
214.71
234.57
259.95
290.12
323.74
359.30
395.01
428.44
456.65
477.24
489.93
497.54
504.74
515.33
529.17
540.91
541.89
524.48
486.26
431.50
369.24
308.83
256.12
212.18
174.52
140.07
107.57
78.11
53.82
36.20
24.94
18.39
15.00
13.92
15.46
20.80
31.08
46.43
65.14
83.85
98.44
105.55
102.91
89.95
67.69
38.48
5.16
-29.86
-64.99
-99.49
-132.58
-163.87
-192.83
-218.82
-240.67
-257.05
-267.16
-270.89
-271.37
-269.07
-262.78
-250.46
-230.95
-203.96
-169.99
-130.56
-88.02
-45.65
-6.74
25.57
50.69
68.19
79.27
86.37
91.37
94.92
96.10
92.94
82.82
63.17
31.51
-14.03
-70.88
-134.36
-196.99
-249.52
-283.33
-294.12
-283.97
-260.92
-234.94
-213.38
-198.57
-187.49
-174.67
-155.88
-130.39
-100.69
-70.17
-40.46
-10.62
21.00
55.25
90.94
125.23
154.94
178.09
194.57
205.98
214.07
219.13
219.25
210.81
190.10
155.34
107.96
52.58
-4.55
-57.33
-101.89
-137.13
-164.53
-187.58
-210.60
-237.67
-271.33
-311.09
-352.60
-388.42
-410.51
-414.07
-400.56
-377.28
-354.17
-338.41
-330.44
-323.69
-308.22
-275.79
-223.65
-155.11
-77.71
-0.02
70.22
126.44
162.82
174.69
160.54
123.97
74.00
22.92
-17.73
-41.01
-45.92
-36.17
-17.19
6.50
32.20
58.22
82.45
101.66
112.20
111.68
100.40
81.85
61.17
42.91
29.19
19.29
11.03
2.59
-5.87
-11.76
-11.28
-1.49
17.90
43.88
70.94
93.09
105.98
108.14
100.93
87.55
71.73
56.84
45.44
39.22
39.03
44.71
55.02
67.86
80.84
91.95
100.16
105.35
107.60
106.72
102.25
94.11
83.41
72.50
64.02
59.20
56.78
53.21
44.17
26.67
0.19
-33.62
-72.66
-115.88
-163.32
-214.51
-266.22
-311.52
-341.21
-347.11
-325.41
-278.26
-212.78
-138.67
-65.90
-3.54
40.73
61.33
56.51
30.50
-6.10
-38.93
-55.18
-49.15
-24.72
6.84
32.75
44.80
42.60
32.23
21.65
15.94
15.03
14.92
11.01
1.15
-13.39
-29.10
-42.70
-52.65
-58.97
-61.75
-59.67
-50.02
-30.13
0.21
37.45
74.52
103.30
117.89
116.98
104.29
86.68
71.06
61.55
57.99
56.30
50.26
34.34
6.24
-31.29
-70.70
-102.04
-116.94
-112.31
-91.88
-64.69
-41.08
-28.59
-29.33
-40.20
-55.29
-68.68
-76.12
-75.20
-64.90
-45.29
-18.18
12.45
40.77
61.00
69.80
67.48
57.69
45.17
33.63
24.69
18.41
14.76
14.30
17.93
25.49
34.89
42.41
44.38
39.47
29.69
19.67
14.59
17.68
28.97
45.65
63.52
78.65
88.33
91.42
88.25
80.58
71.26
63.57
59.87
60.49
63.44
65.59
64.48
59.92
54.05
49.89
49.33
51.93
55.41
57.11
55.35
49.88
41.24
29.93
16.06
0.28
-15.42
-27.89
-34.29
-34.34
-31.63
-32.87
-45.04
-71.89
-111.49
-156.10
-194.69
-216.76
-215.98
-192.19
-151.24
-102.56
-55.90
-18.60
5.82
17.44
18.69
12.99
3.77
-5.93
-13.37
-16.34
-13.86
-6.84
1.82
8.37
10.04
6.72
1.42
-1.29
2.04
11.40
23.04
31.45
32.69
26.53
16.51
7.76
3.97
5.56
10.20
14.86
17.81
19.39
21.24
24.47
28.72
32.02
31.97
27.02
17.09
3.61
-11.06
-24.18
-33.00
-35.29
-30.07
-18.08
-2.10
13.55
24.16
26.23
19.07
5.45
-9.17
-18.54
-18.05
-6.42
13.92
38.03
60.42
76.72
84.59
83.85
75.99
63.68
50.30
39.17
32.78
31.93
35.73
42.12
48.92
54.60
58.33
59.56
57.73
52.52
44.55
35.78
29.00
26.52
28.79
33.96
38.76
40.26
37.44
31.61
25.56
21.88
21.57
23.73
26.25
27.14
25.41
21.42
16.38
11.47
7.38
4.17
1.72
0.07
-0.53
0.20
2.16
4.78
7.29
9.09
10.14
10.79
11.50
12.35
13.08
13.31
12.92
12.15
11.38
10.84
10.37
9.60
8.19
6.13
3.75
1.45
-0.50
-1.90
-2.36
-1.41
1.34
5.87
11.47
17.00
21.74
26.15
31.85
40.74
53.61
69.06
83.56
92.52
91.77
78.85
53.58
17.97
-24.22
-67.94
-107.53
-137.81
-155.45
-160.05
-154.21
-142.40
-128.96
-116.44
-105.21
-94.38
-83.47
-73.26
-65.22
-60.18
-57.24
-53.83
-47.24
-36.58
-23.48
-11.41
-3.72
-1.72
-4.10
-7.99
-10.85
-11.54
-10.70
-9.74
-9.83
-11.46
-14.67
-19.41
-25.51
-32.57
-39.78
-46.23
-51.46
-55.75
-59.71
-63.40
-65.70
-64.53
-58.16
-46.71
-32.95
-21.46
-16.80
-21.50
-35.17
-55.20
-78.17
-101.22
-122.38
-140.01
-151.95
-155.32
-147.34
-126.40
-92.91
-49.00
2.41
58.62
117.05
174.70
227.57
270.75
299.78
312.24
308.81
293.02
269.95
244.28
218.87
194.55
170.66
146.46
122.24
99.85
82.21
72.41
72.30
81.51
97.33
115.21
130.15
137.82
135.43
121.79
97.42
64.25
25.59
-14.21
-50.38
-78.73
-96.71
-104.08
-102.64
-95.46
-85.82
-76.33
-68.50
-62.90
-59.44
-57.63
-56.86
-56.39
-55.46
-53.35
-49.65
-44.51
-38.76
-33.69
-30.50
-29.72
-31.02
-33.43
-35.93
-37.90
-39.30
-40.36
-41.18
-41.46
-40.74
-38.63
-35.19
-30.93
-26.45
-22.27
-18.60
-15.40
-12.67
-10.45
-8.72
-7.09
-4.91
-1.52
3.20
8.74
14.07
18.08
20.12
20.33
19.48
18.53
18.33
19.23
21.27
24.23
27.33
29.54
29.98
28.34
25.20
22.10
20.67
22.02
25.98
30.23
31.74
28.58
21.18
12.13
4.95
1.78
3.21
8.52
15.37
21.21
23.93
22.17
15.18
3.64
-10.97
-25.34
-35.58
-40.87
-43.89
-49.49
-61.80
-81.85
-106.32
-130.30
-148.55
-150.01
-128.12
-84.47
-28.91
26.93
72.56
110.09
142.04
168.62
188.28
197.35
193.10
175.96
149.73
119.91
91.86
67.45
45.75
23.94
-2.43
-36.39
-77.31
-120.16
-157.07
-180.08
-185.28
-173.31
-148.64
-118.64
-90.88
-71.30
-63.58
-69.11
-86.87
-114.11
-145.67
-174.96
-196.34
-207.07
-208.01
-202.58
-194.33
-184.51
-171.84
-153.23
-125.97
-89.87
-47.48
-2.59
41.75
84.49
126.09
166.94
206.26
242.03
272.00
294.95
311.33
322.21
327.78
326.35
314.55
289.13
248.96
196.02
134.92
71.34
10.19
-45.07
-92.42
-130.92
-160.60
-182.86
-200.92
-219.49
-243.61
-276.40
-317.08
-360.00
-395.89
-414.81
-409.95
-380.31
-331.18
-272.20
-213.87
-164.33
-127.65
-104.18
-92.09
-89.16
-93.60
-103.84
-117.92
-133.35
-147.38
-157.86
-163.80
-165.22
-162.83
-157.31
-148.92
-137.56
-123.26
-106.57
-88.71
-71.14
-54.94
-40.27
-26.16
-11.04
6.53
27.01
49.59
72.62
94.47
114.35
132.82
151.53
172.58
197.95
228.82
264.86
303.51
339.58
365.74
374.34
360.24
323.40
269.95
210.76
157.69
119.42
98.54
91.47
90.99
89.79
83.22
70.13
51.65
29.19
2.80
-28.87
-67.21
-111.55
-157.81
-198.82
-226.54
-235.24
-223.90
-196.74
-161.46
-126.29
-96.99
-75.45
-60.22
-48.05
-35.58
-20.36
-1.12
22.12
47.86
73.38
95.15
109.83
115.10
110.23
96.21
75.53
52.07
30.81
17.04
14.98
26.10
48.11
75.53
101.80
121.86
133.95
139.57
141.84
143.18
143.97
142.90
138.23
129.49
118.29
107.73
101.08
100.09
103.98
109.79
113.62
112.32
104.98
93.17
80.03
68.66
60.55
55.28
51.22
46.81
41.63
36.35
32.17
29.77
28.80
28.17
26.79
24.28
21.29
19.07
18.62
20.21
23.18
26.23
28.10
27.87
25.24
20.50
14.38
7.72
1.30
-4.45
-9.53
-14.23
-18.89
-23.57
-27.89
-31.11
-32.55
-31.82
-29.14
-25.22
-20.98
-17.22
-14.31
-12.16
-10.41
-8.73
-7.06
-5.70
-5.09
-5.33
-6.08
-6.47
-5.51
-2.58
2.10
7.59
12.54
15.68
16.42
14.87
11.68
7.69
3.56
-0.31
-3.76
-6.72
-9.18
-11.10
-12.43
-13.13
-13.13
-12.38
-10.93
-8.95
-6.77
-4.88
-3.78
-3.82
-5.14
-7.61
-10.89
-14.52
-17.98
-20.81
-22.57
-22.75
-20.99
-17.20
-11.70
-5.32
0.74
5.41
8.05
8.75
8.19
7.23
6.48
6.01
5.51
4.55
3.11
1.65
0.97
1.86
4.57
8.72
13.39
17.48
20.02
20.46
18.67
14.81
9.28
2.58
-4.71
-11.80
-17.86
-22.06
-23.73
-22.63
-19.04
-13.75
-7.91
-2.71
0.98
2.77
2.76
1.41
-0.79
-3.43
-6.26
-9.11
-11.79
-14.17
-16.29
-18.46
-21.15
-24.46
-27.89
-30.24
-30.05
-26.42
-19.57
-10.97
-2.66
3.62
7.24
8.70
9.05
9.07
8.65
7.13
3.78
-1.32
-7.10
-11.73
-13.46
-11.43
-6.13
0.64
6.53
9.53
8.75
4.78
-0.55
-5.09
-7.28
-6.80
-4.70
-2.66
-2.04
-3.26
-5.48
-7.29
-7.47
-5.74
-2.81
-0.06
1.12
-0.35
-5.32
-14.32
-27.23
-42.60
-57.07
-65.75
-63.75
-48.38
-21.03
12.71
44.77
67.65
77.10
73.36
60.16
42.60
25.09
10.26
-0.82
-7.81
-10.47
-8.77
-3.14
5.01
13.39
19.48
21.38
18.58
11.99
3.58
-4.44
-10.34
-13.31
-13.42
-11.37
-8.08
-4.36
-0.82
2.10
4.09
4.94
4.60
3.36
1.83
0.73
0.64
1.66
3.36
5.01
6.01
6.13
5.71
5.43
5.65
6.43
7.18
7.11
5.56
2.31
-2.43
-8.17
-14.34
-20.46
-25.95
-30.24
-32.67
-32.85
-30.86
-27.42
-23.72
-20.93
-19.81
-20.32
-21.77
-23.31
-24.23
-24.43
-24.23
-23.98
-23.66
-22.82
-20.60
-16.32
-9.82
-1.65
7.05
14.87
20.52
23.16
22.57
19.16
13.94
8.13
2.89
-0.94
-3.07
-3.64
-2.94
-1.23
1.46
5.20
9.88
15.06
19.95
23.55
25.04
24.10
21.02
16.65
12.03
7.94
4.69
2.09
-0.26
-2.59
-4.88
-6.85
-8.29
-9.19
-9.84
-10.52
-11.23
-11.70
-11.35
-9.72
-6.87
-3.37
-0.18
1.78
2.02
0.64
-1.69
-4.03
-5.56
-5.88
-4.98
-3.21
-0.94
1.53
4.07
6.52
8.56
9.76
9.62
7.99
5.14
1.81
-1.12
-2.90
-3.27
-2.42
-0.85
0.89
2.48
3.78
4.85
5.72
6.40
6.82
6.90
6.62
6.02
5.14
3.98
2.52
0.75
-1.31
-3.50
-5.62
-7.40
-8.59
-9.10
-8.94
-8.36
-7.74
-7.47
-7.77
-8.68
-9.94
-11.21
-12.14
-12.56
-12.41
-11.76
-10.71
-9.35
-7.83
-6.30
-4.94
-3.81
-2.80
-1.62
0.02
2.30
5.04
7.73
9.76
10.60
10.11
8.57
6.57
4.70
3.46
2.95
3.05
3.53
4.12
4.65
4.98
4.97
4.57
3.81
2.86
2.02
1.59
1.77
2.45
3.39
4.20
4.67
4.75
4.57
4.31
4.01
3.61
2.97
2.07
0.98
-0.04
-0.68
-0.73
-0.19
0.68
1.44
1.62
0.85
-0.99
-3.69
-6.81
-9.78
-12.08
-13.41
-13.74
-13.23
-12.16
-10.71
-8.98
-6.99
-4.79
-2.49
-0.33
1.42
2.56
3.03
2.97
2.60
2.18
1.87
1.70
1.62
1.58
1.58
1.74
2.13
2.67
3.17
3.32
2.89
1.83
0.32
-1.30
-2.73
-3.74
-4.24
-4.22
-3.74
-2.93
-2.03
-1.29
-0.94
-0.99
-1.21
-1.25
-0.85
-0.06
0.78
1.19
0.82
-0.36
-2.05
-3.79
-5.19
-6.07
-6.48
-6.58
-6.54
-6.51
-6.58
-6.83
-7.26
-7.90
-8.74
-9.73
-10.73
-11.47
-11.61
-10.83
-8.98
-6.25
-3.26
-0.79
0.55
0.57
-0.27
-1.17
-1.28
-0.18
1.99
4.64
7.03
8.67
9.35
9.20
8.50
7.50
6.41
5.35
4.50
4.06
4.26
5.12
6.48
7.88
8.76
8.70
7.57
5.72
3.76
2.31
1.66
1.76
2.19
2.45
2.19
1.30
-0.11
-1.83
-3.69
-5.54
-7.23
-8.64
-9.74
-10.54
-11.19
-11.80
-12.45
-13.08
-13.58
-13.81
-13.71
-13.29
-12.57
-11.59
-10.35
-8.90
-7.31
-5.71
-4.15
-2.71
-1.38
-0.06
1.24
2.48
3.54
4.30
4.66
4.65
4.39
4.06
3.82
3.72
3.63
3.38
2.84
2.07
1.39
1.15
1.60
2.70
4.07
5.26
6.01
6.25
6.12
5.73
5.01
3.88
2.41
0.92
0.02
0.17
1.35
3.00
4.25
4.40
3.27
1.34
-0.62
-1.88
-2.12
-1.51
-0.48
0.51
1.03
0.88
-0.03
-1.67
-3.75
-5.88
-7.65
-8.80
-9.31
-9.43
-9.36
-9.07
-8.26
-6.51
-3.59
0.30
4.54
8.30
10.96
12.35
12.66
12.33
11.88
12.10
14.09
19.22
28.47
41.62
56.83
70.74
79.59
80.70
73.51
59.77
42.69
25.65
11.23
0.81
-5.15
-6.91
-5.36
-2.21
0.01
-1.39
-8.21
-20.34
-35.36
-49.24
-57.75
-57.98
-49.46
-34.03
-14.93
4.53
21.95
36.30
47.63
56.43
63.22
68.08
70.91
71.71
70.96
69.71
69.15
70.05
72.24
74.47
74.70
70.65
60.29
41.96
14.55
-22.39
-67.85
-118.43
-167.79
-207.51
-229.12
-227.22
-201.86
-158.91
-108.20
-60.20
-22.71
0.74
10.56
9.36
0.19
-14.33
-31.51
-48.19
-60.66
-65.77
-62.46
-52.48
-39.89
-29.10
-22.79
-20.61
-19.79
-16.87
-9.71
1.36
14.09
25.63
34.08
38.97
40.99
41.05
39.70
37.15
33.63
29.74
26.42
24.47
23.94
24.12
23.94
22.57
19.93
16.61
13.53
11.33
10.20
9.89
10.05
10.42
10.91
11.55
12.15
12.43
11.96
10.37
7.49
3.39
-1.54
-6.71
-11.43
-15.11
-17.43
-18.47
-18.73
-18.85
-19.26
-19.90
-20.15
-19.07
-15.93
-10.67
-3.98
2.82
8.42
11.86
12.93
12.03
9.86
7.02
3.78
0.14
-4.06
-8.80
-13.91
-19.00
-23.59
-27.21
-29.38
-29.76
-28.14
-24.68
-19.96
-14.98
-10.85
-8.33
-7.59
-8.06
-8.79
-8.94
-8.15
-6.67
-5.12
-4.15
-3.95
-4.37
-4.94
-5.31
-5.39
-5.34
-5.36
-5.45
-5.39
-4.72
-3.12
-0.54
2.59
5.52
7.48
8.04
7.24
5.61
3.87
2.60
2.03
2.03
2.34
2.79
3.40
4.25
5.28
6.20
6.58
6.06
4.71
2.95
1.49
0.89
1.34
2.51
3.80
4.59
4.59
3.90
2.81
1.64
0.48
-0.74
-2.16
-3.74
-5.26
-6.40
-6.92
-6.88
-6.60
-6.59
-7.19
-8.45
-10.09
-11.65
-12.66
-12.99
-12.79
-12.42
-12.23
-12.35
-12.54
-12.34
-11.30
-9.23
-6.37
-3.32
-0.71
1.04
1.87
2.10
2.13
2.27
2.60
3.08
3.67
4.46
5.54
6.97
8.61
10.12
11.10
11.29
10.67
9.47
8.07
6.78
5.78
5.08
4.59
4.27
4.16
4.28
4.60
4.95
5.05
4.68
3.83
2.76
1.87
1.51
1.76
2.34
2.77
2.54
1.40
-0.62
-3.25
-6.09
-8.74
-10.85
-12.17
-12.53
-12.03
-11.00
-9.95
-9.45
-9.85
-11.15
-12.95
-14.65
-15.73
-15.95
-15.33
-14.17
-12.71
-11.10
-9.34
-7.35
-5.11
-2.74
-0.52
1.30
2.49
3.01
2.99
2.70
2.44
2.48
3.02
4.15
5.87
8.03
10.35
12.41
13.77
14.09
13.19
11.21
8.48
5.40
2.39
-0.29
-2.57
-4.50
-6.18
-7.72
-9.16
-10.59
-12.20
-14.31
-17.28
-21.28
-26.16
-31.38
-36.23
-40.12
-43.00
-45.36
-47.92
-51.19
-54.90
-58.06
-59.52
-58.69
-56.11
-53.39
-52.54
-54.60
-58.55
-61.19
-58.42
-47.19
-26.87
0.55
31.32
61.25
87.09
107.19
121.31
129.62
132.03
128.83
121.67
113.76
108.80
109.16
114.25
119.98
119.96
108.80
85.82
56.15
28.20
7.91
-5.30
-18.10
-38.76
-71.61
-113.43
-154.53
-184.04
-193.27
-182.00
-160.44
-143.56
-141.15
-152.56
-169.65
-183.87
-192.27
-196.39
-200.19
-206.95
-216.59
-225.70
-229.84
-225.89
-213.00
-193.36
-170.35
-147.52
-127.19
-109.28
-91.66
-71.61
-47.41
-19.07
11.90
43.53
73.75
101.12
125.26
146.56
165.34
181.13
192.51
197.61
194.88
183.50
163.62
136.51
104.20
68.92
32.68
-3.05
-37.19
-68.78
-97.01
-121.18
-140.74
-155.42
-165.36
-171.10
-173.51
-173.54
-171.94
-169.13
-165.35
-160.66
-155.12
-148.92
-142.37
-135.84
-129.51
-123.28
-116.63
-108.79
-99.03
-86.86
-72.40
-56.26
-39.37
-22.50
-5.95
10.62
28.07
47.36
69.01
92.77
117.69
142.41
165.70
186.97
206.36
224.79
243.66
264.58
288.95
317.33
348.70
379.88
405.85
421.04
421.38
406.00
377.83
342.59
306.56
274.47
248.19
226.95
208.57
190.95
172.75
153.69
134.08
114.44
95.38
77.57
61.67
48.15
37.14
28.35
21.15
14.83
8.75
2.43
-4.35
-11.64
-19.24
-26.75
-33.75
-39.82
-44.70
-48.37
-51.04
-53.07
-54.72
-55.92
-56.18
-54.71
-50.76
-44.07
-35.17
-25.39
-16.44
-9.75
-5.86
-4.23
-3.61
-2.63
-0.55
2.53
5.75
7.98
8.21
5.82
0.71
-6.76
-15.83
-25.52
-34.73
-42.38
-47.62
-49.91
-49.10
-45.35
-39.15
-31.40
-23.35
-16.47
-12.13
-11.10
-13.25
-17.59
-22.58
-26.77
-29.28
-30.00
-29.41
-28.20
-26.86
-25.54
-24.18
-22.72
-21.27
-20.04
-19.16
-18.50
-17.74
-16.54
-14.67
-12.08
-8.87
-5.20
-1.28
2.53
5.82
8.19
9.53
10.17
10.69
11.61
13.02
14.36
14.77
13.53
10.46
6.10
1.37
-2.87
-6.12
-8.41
-10.12
-11.70
-13.44
-15.37
-17.30
-18.83
-19.64
-19.45
-18.27
-16.34
-14.08
-11.84
-9.79
-7.82
-5.71
-3.24
-0.34
2.90
6.37
10.06
14.05
18.37
22.87
27.21
30.92
33.69
35.48
36.51
37.11
37.58
38.07
38.66
39.46
40.53
41.92
43.51
45.06
46.24
46.84
46.76
46.08
44.96
43.64
42.27
40.88
39.34
37.29
34.25
29.75
23.58
16.03
7.91
0.32
-5.66
-9.45
-11.22
-11.85
-12.62
-14.63
-18.49
-23.98
-30.16
-35.53
-38.53
-38.00
-33.63
-26.07
-16.77
-7.49
0.30
6.01
9.97
13.12
16.35
19.91
23.32
25.73
26.59
26.09
25.19
25.09
26.54
29.30
32.17
33.38
31.27
24.85
14.08
-0.20
-16.42
-32.53
-46.42
-56.30
-61.19
-61.21
-57.45
-51.51
-45.03
-39.14
-34.41
-30.99
-28.90
-28.15
-28.64
-30.00
-31.52
-32.46
-32.43
-31.81
-31.65
-33.22
-37.38
-44.03
-52.09
-59.88
-65.84
-69.03
-69.33
-67.29
-63.67
-59.23
-54.50
-49.78
-45.18
-40.53
-35.44
-29.38
-21.88
-12.81
-2.70
7.37
16.00
21.99
24.72
24.41
21.92
18.44
15.06
12.46
10.83
10.06
9.90
10.13
10.53
10.76
10.41
9.07
6.57
3.11
-0.79
-4.49
-7.53
-9.68
-10.97
-11.55
-11.58
-11.17
-10.46
-9.61
-8.85
-8.39
-8.36
-8.81
-9.60
-10.53
-11.23
-11.26
-10.24
-7.92
-4.30
0.34
5.58
10.92
15.99
20.47
24.20
27.02
28.79
29.49
29.27
28.47
27.56
26.95
26.86
27.24
27.77
28.05
27.77
26.74
24.94
22.53
19.77
16.98
14.51
12.56
11.16
10.09
8.97
7.40
5.15
2.13
-1.47
-5.40
-9.26
-12.70
-15.40
-17.24
-18.33
-18.98
-19.67
-20.74
-22.36
-24.45
-26.68
-28.78
-30.50
-31.78
-32.59
-32.96
-32.88
-32.35
-31.41
-30.09
-28.37
-26.17
-23.40
-20.06
-16.29
-12.41
-8.75
-5.59
-2.95
-0.73
1.32
3.30
5.17
6.77
8.00
8.92
9.76
10.69
11.74
12.68
13.13
12.80
11.71
10.23
8.86
7.96
7.56
7.31
6.79
5.79
4.43
3.14
2.39
2.35
2.77
3.15
3.01
2.18
0.93
-0.36
-1.35
-2.13
-3.06
-4.57
-6.82
-9.61
-12.49
-15.03
-17.14
-18.94
-20.74
-22.74
-24.89
-26.92
-28.49
-29.34
-29.30
-28.37
-26.61
-24.21
-21.40
-18.49
-15.71
-13.19
-10.88
-8.52
-5.68
-1.97
2.92
8.98
15.90
22.94
29.22
33.89
36.52
37.15
36.33
34.79
33.16
31.75
30.51
29.15
27.42
25.24
22.73
20.02
17.18
14.17
10.86
7.24
3.48
-0.13
-3.18
-5.33
-6.47
-6.66
-6.08
-5.01
-3.71
-2.41
-1.32
-0.57
-0.20
-0.17
-0.37
-0.77
-1.39
-2.28
-3.41
-4.62
-5.59
-6.01
-5.71
-4.78
-3.56
-2.45
-1.75
-1.51
-1.55
-1.54
-1.16
-0.28
1.09
2.76
4.48
6.05
7.31
8.22
8.82
9.18
9.33
9.29
9.07
8.61
7.96
7.12
6.12
4.90
3.46
1.78
0.03
-1.64
-3.14
-4.65
-6.60
-9.57
-13.97
-19.72
-26.21
-32.40
-37.23
-40.11
-41.03
-40.57
-39.56
-38.80
-38.78
-39.69
-41.38
-43.51
-45.61
-47.17
-47.79
-47.30
-45.80
-43.63
-41.11
-38.26
-34.67
-29.64
-22.60
-13.56
-3.33
6.65
14.90
20.70
24.48
27.78
32.34
39.27
48.19
57.34
64.31
67.16
65.36
60.06
53.84
49.85
50.95
58.76
72.96
91.32
109.66
122.85
126.34
117.67
97.41
69.13
37.98
8.98
-14.72
-32.94
-48.34
-64.97
-85.85
-110.81
-135.61
-153.16
-156.73
-143.33
-115.52
-80.31
-45.64
-16.40
7.42
29.20
52.27
76.08
95.34
102.17
90.22
57.54
7.18
-54.53
-120.33
-183.44
-237.55
-276.47
-294.53
-288.22
-258.64
-212.93
-162.61
-119.79
-92.63
-82.42
-84.03
-89.02
-90.09
-84.30
-73.74
-63.61
-59.31
-63.87
-76.85
-94.98
-113.47
-127.71
-134.07
-130.18
-114.64
-86.90
-47.46
1.62
56.34
110.78
158.29
193.21
212.82
218.07
212.83
202.19
190.64
180.70
173.08
167.28
162.37
157.52
151.87
144.63
135.44
124.83
114.48
106.61
102.91
103.52
106.98
110.82
112.92
112.39
109.81
106.54
103.79
101.87
99.98
96.51
89.53
77.65
60.88
40.99
21.47
6.53
-0.46
1.57
10.66
22.49
32.17
36.25
33.88
26.62
17.10
7.57
-1.01
-8.88
-16.70
-24.71
-32.44
-38.96
-43.41
-45.50
-45.62
-44.58
-43.23
-42.02
-40.94
-39.70
-37.92
-35.47
-32.53
-29.53
-26.91
-24.91
-23.34
-21.59
-19.00
-15.07
-9.86
-4.04
1.27
4.96
6.24
5.01
1.89
-1.99
-5.29
-6.83
-6.01
-2.92
1.69
6.65
10.78
13.31
14.04
13.26
11.60
9.60
7.60
5.70
3.82
1.95
0.20
-1.21
-2.01
-2.05
-1.37
-0.22
1.06
2.08
2.65
2.77
2.68
2.73
3.22
4.22
5.57
6.91
7.85
8.16
7.87
7.19
6.50
6.08
6.09
6.48
7.02
7.30
6.85
5.17
2.03
-2.40
-7.47
-12.18
-15.43
-16.44
-15.04
-11.67
-7.28
-2.86
0.75
3.05
3.85
3.17
1.20
-1.74
-5.14
-8.36
-10.79
-12.04
-12.15
-11.48
-10.68
-10.26
-10.47
-11.17
-11.96
-12.39
-12.19
-11.43
-10.39
-9.54
-9.21
-9.49
-10.18
-10.90
-11.27
-11.10
-10.49
-9.62
-8.76
-8.02
-7.40
-6.79
-6.16
-5.64
-5.48
-5.90
-6.92
-8.35
-9.79
-10.77
-10.95
-10.21
-8.69
-6.67
-4.42
-2.11
0.18
2.48
4.76
6.88
8.60
9.66
9.95
9.59
8.87
8.16
7.74
7.73
8.02
8.42
8.75
8.91
8.85
8.63
8.24
7.70
7.04
6.30
5.59
5.06
4.91
5.29
6.29
7.84
9.74
11.63
13.11
13.79
13.48
12.24
10.42
8.47
6.82
5.67
4.97
4.46
3.90
3.22
2.53
2.14
2.29
3.02
4.17
5.50
6.79
8.05
9.45
11.27
13.65
16.68
20.24
24.12
28.12
32.10
35.93
39.46
42.46
44.64
45.77
45.73
44.59
42.41
39.07
33.98
26.26
15.11
0.49
-16.47
-33.52
-48.04
-58.02
-62.81
-63.43
-61.97
-60.84
-61.88
-65.87
-72.44
-80.43
-88.30
-94.65
-98.43
-98.96
-95.91
-89.25
-79.13
-66.11
-51.31
-36.45
-23.61
-14.69
-10.68
-11.30
-14.94
-19.04
-20.93
-18.52
-10.91
1.28
16.16
30.99
42.97
50.08
51.68
48.49
42.31
35.22
28.88
24.21
21.35
19.97
19.66
20.06
20.89
21.85
22.51
22.39
21.18
18.88
15.84
12.62
9.75
7.42
5.54
3.77
1.74
-0.65
-3.31
-5.96
-8.33
-10.29
-11.92
-13.38
-14.83
-16.31
-17.71
-18.94
-19.98
-21.02
-22.37
-24.22
-26.45
-28.58
-30.04
-30.48
-30.09
-29.52
-29.61
-30.96
-33.74
-37.86
-43.22
-49.58
-56.10
-60.73
-60.27
-51.46
-32.69
-5.25
26.80
58.40
85.64
107.23
124.11
137.78
148.48
154.72
154.45
146.78
133.30
117.59
103.45
92.99
85.80
79.78
72.74
63.94
54.32
45.80
39.81
36.38
34.14
31.13
26.10
19.20
11.96
6.34
3.65
3.74
5.25
6.31
5.69
3.32
0.16
-2.52
-3.94
-4.19
-3.95
-3.89
-4.01
-3.61
-1.85
1.45
5.31
7.85
7.28
2.92
-4.36
-12.81
-21.16
-29.69
-40.33
-55.42
-76.17
-101.32
-127.29
-149.56
-164.47
-170.62
-169.02
-162.29
-153.38
-144.83
-138.32
-135.02
-135.56
-139.69
-145.67
-149.90
-147.27
-132.30
-101.12
-53.44
6.20
68.76
122.86
158.22
169.31
157.31
129.79
97.87
72.22
59.39
60.22
70.51
83.52
93.05
95.30
89.27
75.76
56.29
32.82
8.34
-12.72
-25.09
-24.44
-9.76
15.42
43.95
67.95
82.17
85.86
82.23
75.62
68.41
59.46
45.08
21.57
-12.01
-52.61
-94.02
-129.02
-151.85
-159.70
-153.14
-135.24
-110.24
-82.31
-54.72
-29.76
-8.96
6.61
16.38
20.43
19.77
16.20
11.86
8.52
7.11
7.67
9.72
12.92
17.39
23.66
32.31
43.48
56.56
70.27
83.08
93.84
102.14
108.26
112.79
116.01
117.54
116.54
112.52
106.01
98.85
93.44
91.67
94.02
99.44
105.95
111.55
114.72
114.18
108.74
97.00
77.82
51.11
18.26
-18.40
-56.69
-95.34
-133.82
-170.87
-203.39
-226.34
-234.41
-224.58
-197.90
-159.61
-117.06
-77.15
-44.21
-19.79
-3.93
3.03
-0.50
-16.79
-47.00
-89.43
-138.75
-186.83
-224.92
-246.15
-247.64
-231.40
-203.22
-170.09
-137.60
-108.19
-81.31
-55.07
-28.47
-2.51
20.02
36.37
45.59
49.32
51.11
54.50
61.07
69.72
77.48
81.52
80.95
77.59
75.02
76.66
83.96
95.46
107.49
115.94
118.15
113.89
105.15
94.81
85.25
77.46
71.07
65.13
58.95
52.48
46.20
40.60
35.70
30.92
25.32
18.11
9.19
-0.70
-10.18
-17.86
-22.85
-25.18
-25.70
-25.71
-26.33
-28.02
-30.44
-32.71
-34.00
-33.99
-33.09
-32.00
-31.09
-29.80
-26.78
-20.60
-10.79
1.45
13.50
22.28
25.68
23.36
16.77
8.23
0.01
-6.35
-10.15
-11.17
-9.54
-5.72
-0.58
4.56
8.28
9.64
8.52
5.68
2.41
0.04
-0.55
0.92
4.18
8.58
13.23
17.26
19.79
20.19
18.23
14.18
8.76
2.87
-2.75
-7.70
-12.01
-15.92
-19.46
-22.46
-24.60
-25.84
-26.71
-28.17
-31.07
-35.58
-40.90
-45.43
-47.56
-46.30
-41.57
-34.08
-24.91
-15.09
-5.47
3.14
9.97
14.34
15.94
15.14
13.09
11.37
11.50
14.22
19.15
24.90
29.73
32.33
32.53
31.25
29.94
29.62
30.21
30.52
28.83
23.88
15.47
4.66
-6.67
-16.48
-23.19
-26.08
-25.43
-22.68
-20.12
-20.30
-25.05
-34.45
-46.49
-57.52
-63.51
-61.53
-50.84
-33.09
-11.70
9.08
25.26
33.94
34.17
27.27
16.76
7.17
2.52
4.71
12.85
23.80
33.59
38.89
37.94
30.71
18.58
4.03
-9.78
-19.57
-22.79
-18.60
-8.49
3.93
14.29
19.11
17.19
9.81
-0.16
-9.62
-16.50
-20.05
-20.52
-18.50
-14.33
-8.19
-0.45
7.92
15.43
20.41
21.86
20.13
16.90
14.58
15.28
19.72
26.90
34.31
38.83
37.94
30.89
19.25
6.65
-2.33
-3.84
3.85
19.77
40.76
62.86
82.71
98.44
109.45
115.71
116.87
112.12
100.58
82.19
58.43
32.26
7.32
-13.02
-26.71
-33.27
-33.56
-29.18
-21.78
-12.53
-2.08
9.26
21.17
33.01
43.81
52.39
57.78
59.70
58.72
56.02
52.82
49.61
45.62
38.81
26.61
7.03
-20.21
-53.16
-87.97
-120.05
-145.43
-161.88
-169.18
-168.62
-162.07
-151.29
-137.62
-122.05
-105.65
-89.51
-74.76
-62.26
-52.42
-45.38
-41.33
-40.66
-43.79
-50.73
-60.62
-71.68
-81.69
-88.77
-92.19
-92.32
-90.09
-86.17
-80.50
-72.51
-61.86
-49.29
-36.67
-26.55
-20.87
-20.06
-22.72
-26.21
-27.81
-25.72
-19.54
-10.03
1.64
14.69
29.12
45.46
63.96
83.70
102.34
116.85
124.82
125.62
120.74
112.92
104.65
97.02
89.42
80.53
69.50
56.87
44.25
33.50
25.53
19.86
15.03
9.52
2.67
-5.11
-12.73
-19.09
-23.73
-26.92
-29.44
-31.92
-34.46
-36.44
-36.90
-35.09
-30.96
-25.25
-19.17
-13.80
-9.57
-6.28
-3.36
-0.42
2.46
4.80
6.04
6.03
5.07
3.86
2.95
2.61
2.67
2.71
2.39
1.53
0.18
-1.50
-3.22
-4.61
-5.22
-4.66
-2.76
0.27
3.85
7.28
9.95
11.59
12.29
12.45
12.46
12.63
13.07
13.65
14.14
14.18
13.45
11.72
9.11
6.15
3.64
2.37
2.64
4.05
5.70
6.73
6.92
7.00
8.38
12.48
19.93
30.23
41.75
52.10
58.66
59.00
51.37
35.20
11.62
-16.31
-44.09
-66.97
-81.47
-86.35
-82.73
-73.19
-60.47
-46.47
-32.11
-17.82
-4.23
7.61
16.52
21.83
23.93
24.12
24.08
25.03
27.19
29.74
31.27
30.63
27.44
22.55
17.67
14.82
15.46
19.93
27.25
35.55
42.74
47.34
48.99
48.60
47.83
48.41
51.29
56.02
60.38
60.72
53.03
34.58
5.62
-29.82
-64.50
-90.20
-100.67
-94.07
-73.86
-47.74
-25.13
-14.31
-19.87
-41.55
-74.32
-109.94
-139.28
-155.11
-154.24
-138.43
-113.29
-85.96
-62.43
-45.88
-36.59
-33.08
-33.57
-36.65
-41.08
-45.12
-46.42
-42.61
-32.64
-17.72
-1.26
12.22
18.82
16.93
7.73
-5.37
-18.14
-27.08
-30.58
-29.17
-25.03
-20.92
-19.14
-20.76
-25.52
-32.15
-39.15
-45.42
-50.77
-56.01
-62.58
-71.67
-83.18
-94.90
-102.44
-100.24
-83.41
-49.82
-1.63
54.66
109.80
154.61
182.88
193.09
188.45
175.12
159.68
146.71
137.55
130.29
121.15
106.43
84.47
56.78
27.85
3.53
-11.17
-14.19
-7.21
5.28
17.96
26.99
31.08
31.21
29.28
26.73
23.94
20.62
16.72
13.03
10.95
11.63
14.84
18.74
20.38
16.98
7.24
-7.96
-25.88
-43.12
-56.89
-65.68
-69.01
-66.52
-57.58
-41.61
-19.19
7.04
32.46
52.07
62.42
63.00
56.04
44.98
32.60
19.93
6.73
-7.36
-21.65
-34.32
-43.18
-46.89
-45.55
-40.51
-33.69
-26.77
-20.70
-15.84
-12.26
-9.99
-9.08
-9.51
-11.01
-13.11
-15.38
-17.67
-20.16
-23.17
-26.80
-30.65
-33.87
-35.55
-35.27
-33.48
-31.36
-30.31
-31.21
-33.93
-37.38
-40.00
-40.55
-38.65
-34.95
-30.78
-27.61
-26.57
-28.24
-32.78
-39.78
-47.99
-54.85
-56.56
-49.00
-29.70
0.44
36.54
71.12
96.92
109.71
109.46
99.37
83.44
64.31
42.61
18.20
-8.07
-33.38
-53.65
-65.43
-67.76
-62.57
-53.71
-45.04
-38.83
-35.29
-33.02
-29.99
-24.49
-15.43
-2.37
14.48
34.33
55.72
76.56
94.52
107.56
114.49
115.21
110.68
102.47
92.29
81.61
71.57
62.96
56.28
51.72
49.05
47.61
46.53
44.91
42.19
38.29
33.55
28.52
23.64
19.11
14.92
11.02
7.47
4.46
2.22
0.81
0.07
-0.36
-0.90
-1.96
-3.77
-6.47
-10.10
-14.71
-20.26
-26.66
-33.57
-40.43
-46.54
-51.17
-53.79
-54.18
-52.50
-49.32
-45.42
-41.56
-38.31
-35.89
-34.17
-32.79
-31.37
-29.61
-27.45
-24.95
-22.18
-19.18
-15.91
-12.35
-8.63
-5.12
-2.30
-0.50
0.25
0.39
0.72
2.03
4.89
9.40
15.16
21.48
27.61
32.88
36.84
39.24
39.99
39.25
37.41
35.08
33.01
31.81
31.82
32.99
34.91
36.93
38.39
38.71
37.62
35.12
31.56
27.60
24.08
21.78
21.21
22.46
25.23
28.90
32.87
36.75
40.48
44.25
48.31
52.67
57.00
60.73
63.36
64.86
65.85
67.49
71.05
77.27
86.06
96.41
106.79
115.67
121.86
124.66
123.55
118.15
108.12
93.39
74.44
52.35
28.63
4.75
-18.33
-40.19
-60.62
-79.11
-94.62
-105.68
-111.12
-110.84
-106.21
-99.58
-93.22
-88.03
-82.85
-75.05
-61.85
-42.19
-17.75
7.11
26.92
37.16
35.98
24.80
7.72
-10.11
-24.23
-32.16
-33.94
-31.84
-29.65
-31.72
-41.96
-63.12
-96.05
-139.41
-189.55
-241.08
-287.75
-324.06
-346.61
-355.05
-351.98
-341.91
-329.64
-318.78
-310.88
-305.57
-301.35
-296.37
-288.90
-277.60
-261.46
-240.00
-213.56
-183.58
-152.37
-122.38
-95.25
-70.85
-47.35
-21.90
7.89
42.47
79.73
115.42
144.58
163.43
170.68
168.15
160.39
153.54
153.73
165.26
189.06
222.00
257.39
286.85
302.88
301.39
282.78
251.32
213.11
173.73
136.70
103.46
74.46
50.28
32.07
21.06
17.55
20.30
26.73
33.77
38.99
41.13
40.06
36.22
30.05
21.93
12.37
2.52
-5.87
-10.83
-11.07
-6.61
0.94
9.00
15.03
17.60
17.01
15.12
14.52
17.33
24.28
34.43
45.47
54.64
59.95
61.13
59.97
59.87
64.63
76.85
96.75
121.80
147.46
168.59
181.03
182.58
173.25
154.76
129.88
101.85
73.83
48.69
28.46
14.14
5.66
2.19
2.80
6.77
13.57
22.41
31.86
39.77
43.88
42.64
35.97
25.34
13.19
2.06
-6.35
-11.53
-14.13
-15.39
-16.72
-19.21
-23.51
-29.68
-37.18
-44.96
-51.57
-55.61
-56.14
-53.11
-47.31
-40.15
-33.18
-27.45
-23.28
-20.27
-17.69
-15.04
-12.35
-10.12
-9.09
-9.79
-12.11
-15.45
-18.77
-20.79
-20.25
-16.12
-8.24
1.89
10.55
12.13
0.80
-26.76
-68.87
-118.25
-163.88
-194.93
-204.74
-192.97
-164.83
-128.25
-90.54
-56.35
-27.82
-5.69
9.31
16.35
15.38
8.06
-2.08
-10.57
-13.84
-10.69
-2.62
6.95
14.18
16.46
13.18
5.54
-4.29
-14.22
-22.82
-29.32
-33.27
-34.25
-31.85
-26.10
-17.74
-8.17
0.96
8.35
13.44
16.30
17.11
15.94
12.81
8.38
4.44
3.78
9.22
22.18
41.63
64.11
85.16
101.13
110.74
115.13
116.76
117.73
118.75
119.24
118.31
115.92
113.01
110.51
107.90
102.56
90.63
69.19
38.58
3.28
-29.56
-53.16
-64.22
-64.45
-59.49
-55.95
-58.12
-66.25
-77.05
-85.84
-88.98
-85.15
-75.17
-60.87
-43.99
-26.00
-8.40
6.88
17.67
22.60
22.23
19.48
18.76
24.19
37.64
57.69
79.94
98.42
107.57
104.00
87.63
61.88
32.78
7.07
-9.85
-16.04
-13.60
-7.74
-4.58
-8.80
-22.12
-43.38
-69.53
-97.05
-122.81
-144.19
-158.96
-165.40
-162.78
-151.82
-134.70
-114.31
-93.16
-72.55
-52.65
-33.18
-14.42
2.36
15.04
21.60
21.09
14.23
3.22
-8.93
-19.55
-27.11
-31.59
-34.16
-36.37
-39.35
-43.20
-47.09
-49.71
-49.93
-47.35
-42.41
-36.21
-30.08
-25.18
-22.17
-21.17
-21.71
-23.04
-24.29
-24.69
-23.67
-20.89
-16.35
-10.54
-4.57
0.00
1.99
1.79
2.18
7.94
23.98
52.59
91.45
133.43
168.97
189.73
191.92
177.56
153.01
125.99
102.61
85.69
75.01
68.56
64.01
59.47
53.59
45.43
34.52
21.07
6.14
-8.51
-20.92
-29.61
-34.19
-35.35
-34.73
-34.16
-34.90
-37.04
-39.09
-38.20
-31.14
-15.55
8.56
38.04
67.69
92.17
108.06
114.90
114.61
110.00
103.36
95.45
85.51
72.78
57.46
40.93
25.27
12.52
4.33
2.09
6.02
13.96
22.41
27.39
26.04
17.79
4.32
-11.60
-26.96
-40.92
-55.81
-74.84
-100.55
-133.43
-171.67
-212.19
-251.92
-287.50
-307.28
-300.93
-262.33
-193.85
-105.98
-12.16
76.60
149.54
207.52
252.27
283.30
299.65
300.93
288.19
264.72
234.48
201.09
167.90
136.12
105.06
73.93
42.44
11.43
-17.29
-41.66
-60.18
-71.76
-76.91
-77.29
-74.39
-69.10
-61.42
-50.59
-35.75
-16.62
6.47
31.74
56.40
77.49
92.45
99.60
98.43
89.59
74.63
55.89
35.83
16.87
1.28
-9.06
-12.80
-9.30
1.44
18.69
41.16
67.12
94.74
122.22
147.96
170.64
189.25
203.26
212.42
216.75
216.44
211.68
202.68
189.71
173.40
154.84
135.72
118.19
104.41
96.07
93.70
96.46
102.43
109.21
114.60
117.17
116.52
112.92
106.73
97.69
84.70
66.09
40.58
8.10
-29.58
-68.90
-105.58
-135.92
-158.08
-172.37
-181.22
-188.10
-196.78
-210.56
-231.54
-259.69
-291.69
-320.72
-338.10
-336.68
-314.37
-276.14
-232.42
-194.70
-170.46
-160.11
-157.84
-155.63
-147.96
-134.30
-118.35
-105.01
-96.97
-93.49
-91.69
-88.76
-84.14
-79.93
-79.79
-87.32
-104.99
-133.56
-172.47
-219.71
-271.44
-321.77
-363.20
-388.38
-392.39
-374.82
-339.80
-294.46
-245.88
-198.59
-153.59
-109.20
-63.18
-14.76
34.40
80.72
119.86
148.16
163.59
166.01
157.10
139.77
117.33
92.85
68.68
46.13
25.74
7.57
-8.42
-22.10
-33.22
-41.52
-46.95
-49.87
-51.17
-52.04
-53.55
-56.12
-59.15
-60.98
-59.31
-52.28
-39.49
-22.71
-5.54
7.84
14.45
13.81
8.10
1.24
-2.86
-1.60
5.45
16.84
30.12
42.83
53.38
61.59
68.49
75.60
84.00
93.42
102.12
107.63
108.06
103.42
95.91
89.37
88.02
95.38
113.71
143.54
183.46
229.64
275.76
313.96
336.61
338.78
319.67
282.67
233.62
178.56
121.88
66.16
13.21
-34.72
-74.65
-103.99
-122.37
-132.74
-141.00
-154.12
-177.84
-214.72
-263.29
-318.41
-372.46
-417.16
-445.50
-453.27
-440.05
-408.95
-365.17
-314.22
-260.53
-207.14
-156.66
-112.56
-79.62
-62.82
-65.29
-86.38
-121.02
-160.99
-197.24
-222.25
-231.70
-224.73
-203.03
-169.62
-127.82
-81.07
-33.24
11.04
46.82
70.05
79.37
77.24
69.71
64.58
68.57
84.85
111.96
144.71
176.35
201.29
216.89
224.22
227.40
231.71
241.38
257.88
279.27
301.05
318.20
327.13
326.87
318.80
305.55
289.62
272.78
256.24
241.17
228.99
221.25
218.66
220.40
223.90
225.49
221.38
208.93
187.32
157.72
123.00
86.54
51.49
20.12
-6.32
-27.53
-44.05
-57.68
-71.79
-91.23
-120.55
-161.64
-211.37
-261.44
-300.81
-319.79
-313.44
-282.78
-233.92
-175.90
-118.72
-71.93
-43.16
-35.97
-47.73
-69.19
-87.13
-89.96
-73.52
-43.66
-14.19
-0.69
-13.67
-54.78
-117.19
-188.64
-255.68
-307.07
-336.08
-341.47
-327.35
-301.41
-271.81
-244.12
-219.37
-194.75
-166.22
-131.63
-92.29
-52.11
-15.20
16.53
43.84
69.02
93.74
118.01
140.62
160.85
179.91
200.62
225.36
253.22
278.50
292.68
288.88
266.32
231.61
195.70
167.88
150.77
139.37
124.68
99.34
61.18
13.06
-40.33
-95.35
-150.02
-201.94
-245.94
-274.00
-277.91
-253.29
-202.20
-133.27
-59.39
5.38
49.51
66.82
58.44
32.64
2.15
-20.54
-27.63
-18.35
2.12
26.11
47.24
62.13
70.47
73.95
75.54
78.90
87.61
103.21
122.99
139.21
141.62
122.73
82.71
31.05
-16.75
-45.70
-47.42
-22.53
21.31
73.93
126.66
173.63
210.85
235.20
244.18
236.94
215.50
184.96
152.10
123.42
103.36
93.74
94.49
104.21
120.02
137.38
150.29
152.69
140.67
113.92
75.47
30.34
-16.81
-63.86
-111.48
-161.48
-214.59
-268.19
-316.50
-353.18
-372.64
-371.87
-352.25
-319.03
-279.61
-241.25
-208.16
-181.47
-161.42
-146.08
-131.79
-115.60
-95.82
-71.84
-43.50
-9.25
31.76
75.53
116.42
149.36
169.95
176.71
172.19
162.32
155.85
159.58
172.61
191.43
213.67
237.64
263.52
292.83
313.26
313.21
304.85
290.08
258.28
207.81
145.13
83.41
37.12
15.09
18.32
38.38
59.17
69.05
67.01
59.22
53.65
54.07
57.51
58.14
50.63
31.47
3.47
-25.43
-48.66
-64.12
-74.33
-84.09
-96.20
-110.46
-125.42
-137.16
-140.24
-130.81
-107.80
-73.76
-34.47
3.18
32.63
48.92
51.17
42.89
30.24
19.94
17.32
25.10
43.07
68.34
96.13
121.35
139.73
148.46
146.37
133.80
111.91
82.16
46.08
5.28
-37.89
-80.06
-117.15
-146.02
-166.13
-180.41
-193.52
-209.00
-226.26
-240.24
-244.26
-234.60
-213.58
-188.67
-168.34
-157.57
-156.05
-160.27
-167.16
-176.04
-187.36
-199.47
-206.37
-199.06
-170.54
-121.35
-61.65
-8.09
23.38
24.95
0.40
-36.63
-68.59
-81.30
-69.27
-37.26
2.34
35.14
51.22
48.96
34.98
20.28
14.90
23.63
44.63
71.67
98.01
120.17
139.51
160.49
186.80
217.81
247.85
268.63
273.86
263.02
242.28
221.97
211.99
217.56
237.37
265.20
293.14
315.01
328.00
332.22
329.07
319.59
303.75
280.76
250.07
212.40
170.30
127.84
89.70
59.84
40.25
30.61
28.73
31.45
35.91
40.32
43.94
46.59
48.08
47.74
44.43
37.01
24.79
8.03
-12.08
-33.61
-54.36
-72.19
-85.47
-93.19
-95.01
-91.34
-83.09
-71.53
-58.12
-44.05
-30.15
-16.78
-4.06
7.81
18.17
25.81
29.18
26.69
17.30
0.80
-22.18
-50.69
-83.72
-120.62
-161.01
-204.37
-249.94
-297.00
-345.55
-396.54
-451.16
-509.13
-567.08
-618.09
-653.21
-664.71
-649.23
-609.62
-554.07
-493.25
-436.50
-389.63
-354.18
-328.60
-310.11
-295.58
-281.78
-265.03
-241.32
-207.80
-165.05
-118.81
-79.19
-57.18
-59.27
-83.31
-118.36
-148.75
-160.95
-149.34
-117.98
-77.58
-39.76
-11.77
5.37
15.17
22.24
29.44
37.28
45.19
53.45
63.65
78.57
100.42
129.61
164.39
201.67
238.78
274.72
310.49
347.80
387.28
426.87
461.52
484.45
489.42
472.98
435.26
379.76
312.06
238.60
165.71
99.53
45.80
9.07
-8.26
-7.23
7.78
30.24
53.58
73.01
86.24
93.17
94.31
89.69
78.33
58.70
29.89
-6.87
-47.39
-84.69
-110.63
-118.87
-106.90
-76.82
-34.04
14.97
64.61
110.41
147.76
170.82
173.37
151.85
108.58
52.90
-1.74
-43.10
-65.01
-68.55
-59.16
-42.06
-19.12
10.65
47.85
89.05
125.92
147.74
146.20
119.87
75.66
26.76
-12.57
-31.96
-28.09
-4.80
29.35
64.61
92.78
108.42
108.94
93.85
64.66
25.00
-19.14
-60.36
-91.93
-109.99
-114.70
-109.38
-98.33
-84.47
-68.37
-48.87
-24.88
3.15
32.76
60.43
83.04
98.73
106.86
107.16
99.14
82.43
57.76
27.73
-3.24
-30.37
-50.28
-61.81
-65.87
-64.25
-58.85
-51.76
-45.82
-44.75
-51.99
-68.33
-90.14
-109.51
-116.76
-104.36
-70.27
-18.85
40.80
97.88
142.94
169.95
177.00
166.15
142.42
112.22
81.35
53.51
29.76
9.56
-7.39
-19.82
-24.79
-19.49
-3.43
20.20
44.96
63.17
68.42
57.49
30.80
-8.00
-53.21
-98.14
-136.41
-163.26
-176.91
-179.35
-175.93
-173.52
-177.39
-188.85
-204.51
-218.29
-224.90
-222.60
-213.63
-202.38
-192.52
-185.02
-178.28
-169.84
-158.32
-144.35
-129.84
-116.36
-103.99
-91.22
-75.64
-55.05
-27.78
6.88
48.23
93.43
137.05
171.87
190.95
190.49
171.88
141.88
110.64
88.39
82.36
94.91
123.70
163.46
208.07
252.14
292.01
326.02
354.32
378.46
400.26
420.35
437.08
446.67
444.40
426.99
394.55
351.24
303.77
258.71
219.94
187.56
158.73
129.57
96.95
59.33
16.64
-30.56
-81.55
-135.51
-191.02
-245.21
-293.35
-329.28
-347.14
-343.57
-319.61
-281.24
-238.18
-201.09
-178.07
-171.77
-178.14
-187.70
-188.64
-171.31
-132.22
-75.93
-13.49
42.13
81.50
102.89
112.08
118.31
128.54
143.55
158.21
165.30
160.32
143.82
120.17
93.87
66.45
36.25
1.04
-38.39
-76.78
-106.43
-121.45
-121.47
-112.61
-104.72
-106.16
-119.37
-139.32
-156.27
-161.14
-150.60
-129.20
-106.99
-94.22
-96.06
-110.68
-131.13
-149.80
-162.20
-168.02
-168.92
-165.60
-155.96
-135.94
-102.40
-55.46
0.97
61.29
120.80
176.85
228.07
272.34
305.65
322.81
319.83
296.35
256.30
206.55
154.23
104.13
57.50
12.85
-32.14
-78.29
-123.39
-162.52
-190.10
-202.86
-202.26
-194.59
-188.08
-188.64
-195.98
-203.31
-200.53
-179.61
-138.72
-82.99
-21.59
36.49
85.47
123.01
148.53
161.93
163.72
156.64
146.03
138.55
138.60
145.32
152.31
150.54
132.93
97.88
49.89
-3.41
-55.21
-102.17
-144.84
-185.79
-227.56
-271.06
-315.07
-356.39
-390.43
-411.95
-416.35
-401.54
-368.98
-323.64
-272.20
-220.52
-171.76
-126.33
-83.37
-42.53
-4.92
27.57
53.94
75.45
95.73
119.49
150.79
191.59
241.66
298.11
356.02
408.81
448.99
469.61
466.26
439.03
393.44
339.34
287.75
247.13
220.53
205.22
194.97
183.57
167.74
147.96
127.15
108.26
92.48
79.07
66.45
53.81
42.10
33.33
29.24
29.90
33.27
36.15
35.67
30.41
21.10
10.20
0.58
-5.53
-7.45
-6.25
-4.11
-3.46
-5.94
-11.88
-20.24
-29.15
-36.68
-41.68
-44.28
-45.85
-48.59
-54.72
-65.73
-81.87
-102.16
-125.14
-149.39
-174.40
-200.66
-229.46
-262.39
-301.08
-347.00
-401.08
-462.89
-529.31
-594.02
-648.04
-682.11
-689.84
-670.21
-627.98
-571.65
-510.11
-449.56
-392.45
-338.18
-285.23
-232.81
-181.16
-131.03
-82.67
-35.48
11.67
59.59
108.46
158.02
207.51
255.99
302.00
343.35
377.28
401.23
413.67
414.52
405.03
387.01
362.38
332.97
300.95
269.21
241.11
219.60
206.02
199.53
197.62
197.52
197.48
197.04
196.22
194.26
189.15
178.24
159.83
134.53
105.51
77.52
54.95
40.31
33.50
32.33
33.50
33.89
31.48
25.79
17.84
9.37
1.88
-4.26
-10.04
-17.22
-27.06
-39.16
-51.45
-60.95
-65.34
-63.89
-57.45
-47.46
-34.96
-20.35
-4.21
11.79
24.63
30.82
28.28
17.82
3.07
-10.96
-20.07
-22.64
-19.61
-13.22
-5.39
3.04
12.02
21.23
29.43
34.78
35.91
32.82
26.90
20.12
13.83
8.31
3.16
-1.71
-5.42
-6.17
-2.15
7.42
21.88
39.50
58.45
77.86
98.49
122.23
150.87
184.37
219.58
250.31
269.09
269.83
250.39
213.60
166.04
115.43
67.57
24.58
-14.97
-54.31
-96.25
-141.42
-188.13
-233.40
-273.93
-306.98
-330.48
-343.13
-344.75
-336.76
-322.49
-306.76
-294.40
-288.35
-288.21
-290.49
-290.19
-283.17
-267.83
-245.24
-217.86
-187.73
-155.60
-121.47
-85.44
-48.29
-11.50
23.49
55.48
83.08
104.40
116.77
117.65
106.23
84.64
57.76
31.81
12.17
1.68
0.46
6.88
19.25
36.95
60.36
89.65
123.54
158.75
190.22
212.75
222.78
219.69
205.64
184.26
158.88
131.58
103.40
75.50
50.16
30.45
19.02
16.47
20.72
27.85
34.01
37.21
38.06
39.27
44.04
54.13
68.49
82.90
90.90
85.82
63.46
24.42
-25.02
-74.41
-112.48
-131.01
-127.73
-106.64
-76.15
-45.77
-22.78
-10.51
-8.01
-11.11
-13.93
-10.31
4.62
32.81
72.07
115.72
153.82
175.85
174.32
147.76
101.58
46.42
-5.76
-45.76
-69.33
-76.84
-71.06
-55.02
-31.24
-2.36
28.36
56.23
76.09
84.44
81.39
71.03
59.55
52.25
51.26
56.11
63.84
70.57
73.06
70.13
62.75
53.19
43.49
34.70
28.72
26.72
28.74
33.29
37.99
40.52
39.51
35.06
29.00
26.94
34.55
55.02
87.60
128.60
173.45
218.27
260.26
281.64
269.67
221.78
148.05
64.52
-15.31
-83.93
-138.83
-180.58
-211.27
-230.94
-239.83
-239.33
-232.59
-223.27
-214.42
-207.69
-203.57
-201.85
-200.31
-196.98
-191.29
-184.41
-178.21
-174.36
-173.49
-175.41
-179.17
-182.52
-183.34
-180.48
-174.69
-166.46
-156.54
-145.55
-133.96
-122.02
-109.61
-96.75
-83.91
-71.98
-61.88
-54.39
-49.89
-48.35
-49.13
-51.40
-54.47
-57.91
-61.68
-65.88
-70.79
-76.68
-83.74
-91.59
-99.82
-108.07
-115.85
-122.64
-127.68
-130.07
-128.52
-125.12
-120.49
-114.98
-108.93
-102.66
-96.47
-90.57
-85.14
-80.33
-76.23
-72.48
-68.86
-65.36
-62.05
-59.09
-56.57
-54.47
-52.66
-50.89
-48.55
-45.22
-40.80
-35.46
-29.50
-23.17
-16.53
-9.42
-1.51
7.70
18.35
30.08
42.20
53.95
64.93
75.39
86.27
98.94
114.78
134.45
157.63
183.10
209.33
234.97
259.45
282.96
306.23
330.13
355.25
381.70
408.99
435.93
460.46
479.79
490.86
491.25
480.17
458.81
429.93
396.58
360.82
322.92
281.81
236.40
187.12
136.67
89.40
49.66
19.76
-1.10
-16.59
-31.57
-49.92
-72.85
-98.53
-123.13
-142.66
-154.47
-157.99
-154.35
-145.52
-133.37
-119.27
-104.16
-89.00
-74.93
-63.33
-55.44
-52.01
-52.93
-57.25
-63.33
-69.35
-73.78
-75.86
-75.77
-74.50
-73.41
-73.60
-75.48
-78.60
-81.83
-83.79
-83.33
-79.78
-73.03
-63.29
-51.00
-36.63
-20.75
-4.08
12.62
28.59
43.36
56.62
68.16
77.41
83.32
84.64
80.66
72.06
61.26
51.88
47.27
48.98
55.94
64.89
72.02
74.74
72.76
67.74
61.92
56.47
50.75
42.82
30.69
13.58
-7.73
-31.34
-55.30
-78.07
-98.72
-116.50
-130.49
-139.89
-144.41
-144.55
-141.21
-134.71
-123.89
-106.07
-78.46
-40.30
5.31
51.40
89.07
110.80
113.53
99.72
76.22
51.22
31.18
18.95
13.91
13.51
15.04
16.73
17.87
18.16
17.17
14.45
9.89
4.44
0.05
-0.98
2.98
12.04
24.49
37.38
47.51
52.47
51.28
44.46
33.59
20.70
7.72
-3.94
-13.44
-20.63
-25.89
-29.89
-33.27
-36.41
-39.24
-41.39
-42.42
-42.22
-41.11
-39.75
-38.82
-38.59
-38.90
-39.14
-38.73
-37.39
-35.30
-32.96
-30.86
-29.22
-27.85
-26.37
-24.41
-21.97
-19.38
-17.18
-15.80
-15.36
-15.60
-16.06
-16.29
-16.05
-15.37
-14.52
-13.77
-13.28
-12.96
-12.66
-12.19
-11.52
-10.73
-9.98
-9.42
-9.04
-8.76
-8.44
-8.05
-7.69
-7.56
-7.90
-8.79
-10.17
-11.86
-13.58
-15.08
-16.14
-16.60
-16.36
-15.40
-13.81
-11.72
-9.40
-7.16
-5.25
-3.84
-2.91
-2.32
-1.92
-1.54
-1.14
-0.77
-0.51
-0.40
-0.39
-0.34
-0.10
0.38
1.07
1.81
2.40
2.63
2.38
1.59
0.39
-0.99
-2.27
-3.14
-3.37
-2.92
-1.93
-0.64
0.66
1.73
2.47
2.77
2.60
1.95
0.80
-0.73
-2.51
-4.32
-6.00
-7.36
-8.36
-9.01
-9.39
-9.62
-9.89
-10.28
-10.80
-11.32
-11.59
-11.39
-10.55
-9.08
-7.14
-4.97
-2.81
-0.89
0.68
1.89
2.81
3.55
4.25
4.97
5.74
6.49
7.11
7.45
7.43
7.05
6.36
5.54
4.66
3.82
3.01
2.26
1.63
1.25
1.21
1.52
2.08
2.65
3.08
3.22
3.11
2.83
2.50
2.11
1.61
0.93
0.02
-1.07
-2.24
-3.44
-4.67
-5.94
-7.36
-9.00
-10.84
-12.86
-14.99
-17.03
-18.79
-20.05
-20.68
-20.70
-20.30
-19.83
-19.57
-19.59
-19.63
-19.23
-18.01
-16.05
-13.84
-12.20
-11.86
-13.02
-15.27
-17.92
-20.31
-22.12
-23.53
-24.90
-26.61
-28.92
-32.06
-36.20
-41.41
-47.39
-53.11
-56.84
-56.58
-50.66
-38.41
-20.45
1.56
25.24
47.94
67.14
80.79
87.75
88.15
83.47
76.17
68.95
64.00
62.62
65.18
71.53
81.17
93.09
105.45
115.41
119.69
115.56
102.09
80.72
54.88
28.80
6.15
-10.97
-22.29
-28.77
-31.82
-32.53
-31.49
-28.91
-25.17
-21.08
-17.99
-17.27
-19.75
-25.29
-32.78
-40.57
-47.25
-52.12
-55.26
-57.09
-57.81
-57.00
-53.84
-47.63
-38.42
-27.26
-16.08
-7.00
-1.64
-0.47
-2.73
-6.83
-10.94
-13.62
-14.32
-13.46
-12.13
-11.67
-13.07
-16.58
-21.64
-27.01
-31.13
-32.51
-30.07
-23.46
-13.35
-1.34
10.21
18.88
23.10
22.92
20.20
18.08
19.69
26.71
38.62
52.79
65.61
73.97
76.31
72.98
65.61
56.09
45.65
34.71
23.12
10.92
-1.19
-11.92
-19.84
-24.17
-25.01
-23.42
-20.84
-18.50
-16.91
-15.84
-14.69
-12.92
-10.45
-7.64
-5.19
-3.68
-3.39
-4.12
-5.35
-6.54
-7.27
-7.55
-7.67
-8.12
-9.26
-11.14
-13.46
-15.65
-17.21
-17.79
-17.37
-16.19
-14.59
-12.88
-11.21
-9.54
-7.71
-5.57
-3.13
-0.61
1.55
2.86
2.98
1.89
-0.10
-2.33
-4.14
-5.01
-4.79
-3.76
-2.41
-1.35
-0.99
-1.50
-2.71
-4.21
-5.49
-6.16
-6.02
-5.13
-3.82
-2.61
-2.07
-2.58
-4.05
-5.63
-5.82
-2.90
4.33
15.78
29.74
43.30
53.25
57.14
54.24
45.56
33.23
19.68
6.88
-4.01
-12.41
-18.18
-21.38
-22.26
-21.37
-19.45
-17.33
-15.65
-14.69
-14.39
-14.43
-14.44
-14.07
-13.19
-11.83
-10.19
-8.59
-7.33
-6.57
-6.32
-6.40
-6.57
-6.68
-6.76
-6.95
-7.39
-8.10
-8.87
-9.45
-9.72
-9.75
-9.85
-10.38
-11.49
-13.06
-14.67
-15.88
-16.51
-16.83
-17.54
-19.41
-22.86
-27.61
-32.71
-36.93
-39.34
-39.85
-39.20
-38.67
-39.45
-42.17
-46.72
-52.37
-58.05
-62.44
-63.97
-60.93
-52.04
-37.21
-18.27
1.39
18.08
29.54
36.25
41.19
48.30
60.26
76.93
95.35
111.26
121.51
125.70
126.65
128.97
136.87
152.06
173.07
196.03
216.51
231.37
239.61
241.95
239.49
232.36
219.49
199.57
172.45
140.04
105.97
73.97
46.09
21.82
-1.13
-24.85
-49.83
-74.50
-96.37
-113.53
-125.19
-131.42
-131.98
-126.09
-112.91
-92.66
-67.38
-40.66
-16.25
3.43
18.17
29.77
40.99
54.42
71.39
91.32
111.55
127.67
134.70
128.83
109.01
77.37
38.06
-4.55
-47.20
-87.74
-124.25
-154.16
-174.74
-184.32
-183.59
-175.77
-165.19
-155.51
-147.97
-141.35
-133.12
-120.98
-104.26
-84.18
-63.36
-44.83
-31.10
-23.40
-21.47
-23.66
-27.43
-30.29
-30.54
-27.81
-23.06
-18.07
-14.88
-15.14
-19.60
-27.67
-37.45
-46.03
-50.37
-48.30
-39.45
-25.42
-9.26
5.63
16.77
23.07
24.70
22.51
17.41
10.24
1.92
-6.44
-13.67
-19.02
-22.55
-25.17
-28.09
-32.20
-37.55
-43.30
-48.18
-51.09
-51.49
-49.53
-45.76
-40.91
-35.68
-30.59
-26.02
-22.13
-18.93
-16.20
-13.63
-10.86
-7.67
-4.13
-0.56
2.53
4.64
5.45
4.89
3.19
0.76
-1.89
-4.32
-6.21
-7.35
-7.65
-7.14
-5.92
-4.23
-2.47
-1.12
-0.63
-1.25
-2.92
-5.29
-7.86
-10.20
-12.02
-13.31
-14.24
-15.06
-15.97
-17.04
-18.13
-18.94
-19.11
-18.36
-16.77
-14.93
-13.75
-14.20
-16.75
-21.09
-26.07
-30.10
-31.65
-29.79
-24.39
-16.04
-5.80
5.16
15.70
24.86
31.91
36.45
38.50
38.46
36.97
34.67
32.04
29.22
26.23
23.11
20.01
17.26
15.15
13.78
12.98
12.44
11.87
11.17
10.38
9.53
8.58
7.29
5.47
3.18
0.84
-0.93
-1.62
-1.21
-0.22
0.60
0.56
-0.46
-2.03
-3.41
-3.89
-3.18
-1.38
1.02
3.60
5.99
8.03
9.66
10.82
11.47
11.59
11.28
10.70
10.10
9.63
9.35
9.19
8.95
8.43
7.56
6.38
5.08
3.99
3.34
3.26
3.61
4.02
4.12
3.62
2.53
1.05
-0.45
-1.73
-2.70
-3.38
-3.78
-3.85
-3.58
-3.04
-2.50
-2.34
-2.88
-4.16
-5.83
-7.41
-8.46
-8.78
-8.48
-7.77
-6.81
-5.61
-4.07
-2.12
0.10
2.41
4.52
6.24
7.50
8.35
8.89
9.21
9.43
9.54
9.63
9.72
9.83
9.94
10.00
9.98
9.87
9.68
9.45
9.20
8.97
8.77
8.59
8.45
8.35
8.33
8.45
8.71
9.07
9.35
9.31
8.74
7.50
5.62
3.25
0.61
-2.10
-4.73
-7.11
-9.03
-10.21
-10.39
-9.53
-7.87
-5.86
-3.99
-2.60
-1.75
-1.32
-1.10
-0.90
-0.63
-0.21
0.45
1.42
2.72
4.27
5.76
6.84
7.23
6.82
5.76
4.33
2.78
1.22
-0.27
-1.70
-3.00
-4.01
-4.65
-4.87
-4.75
-4.50
-4.24
-4.05
-3.88
-3.72
-3.54
-3.44
-3.50
-3.70
-4.01
-4.29
-4.46
-4.58
-4.78
-5.19
-5.97
-7.12
-8.51
-9.95
-11.13
-11.71
-11.47
-10.32
-8.40
-6.06
-3.74
-1.74
-0.29
0.60
1.07
1.27
1.40
1.65
2.16
2.98
4.05
5.17
6.11
6.71
6.96
7.03
7.11
7.32
7.70
8.19
8.66
8.99
9.12
8.96
8.56
8.04
7.55
7.22
7.04
6.87
6.46
5.69
4.60
3.46
2.61
2.22
2.25
2.41
2.37
1.90
0.97
-0.27
-1.61
-2.88
-4.07
-5.19
-6.33
-7.49
-8.67
-9.80
-10.82
-11.60
-12.04
-12.01
-11.45
-10.44
-9.10
-7.65
-6.26
-4.99
-3.75
-2.42
-0.93
0.66
2.17
3.42
4.32
4.87
5.20
5.43
5.60
5.67
5.54
5.17
4.65
4.14
3.85
3.88
4.15
4.47
4.65
4.65
4.64
4.92
5.72
6.99
8.42
9.55
9.98
9.63
8.68
7.45
6.21
5.06
3.96
2.81
1.63
0.53
-0.32
-0.88
-1.20
-1.41
-1.66
-2.07
-2.69
-3.55
-4.61
-5.81
-7.06
-8.25
-9.25
-10.04
-10.54
-10.70
-10.43
-9.68
-8.49
-6.92
-5.17
-3.37
-1.64
-0.02
1.45
2.66
3.52
3.98
4.06
3.88
3.65
3.55
3.67
4.04
4.57
5.17
5.77
6.31
6.82
7.40
8.11
8.90
9.68
10.25
10.41
10.10
9.33
8.29
7.19
6.16
5.21
4.26
3.19
1.96
0.59
-0.91
-2.53
-4.27
-6.21
-8.36
-10.61
-12.71
-14.34
-15.23
-15.36
-14.89
-14.18
-13.57
-13.19
-12.93
-12.51
-11.68
-10.29
-8.48
-6.50
-4.57
-2.88
-1.42
-0.13
1.04
2.05
2.83
3.34
3.55
3.57
3.52
3.59
3.87
4.39
5.04
5.66
6.04
6.07
5.77
5.29
4.87
4.70
4.86
5.22
5.55
5.57
5.09
4.11
2.78
1.42
0.36
-0.17
-0.12
0.39
1.08
1.61
1.78
1.55
1.06
0.51
-0.01
-0.52
-1.16
-2.06
-3.27
-4.67
-6.07
-7.32
-8.34
-9.20
-9.93
-10.57
-11.02
-11.17
-10.87
-10.05
-8.73
-7.02
-5.11
-3.17
-1.28
0.51
2.24
3.92
5.46
6.70
7.55
7.99
8.17
8.30
8.54
8.88
9.19
9.28
9.07
8.64
8.16
7.78
7.53
7.27
6.81
6.08
5.16
4.26
3.64
3.43
3.61
3.96
4.24
4.25
3.93
3.40
2.84
2.40
2.16
2.09
2.12
2.13
2.00
1.58
0.79
-0.41
-1.95
-3.69
-5.42
-6.97
-8.26
-9.31
-10.12
-10.71
-10.98
-10.85
-10.32
-9.52
-8.65
-7.86
-7.17
-6.43
-5.44
-4.12
-2.51
-0.80
0.78
2.13
3.25
4.23
5.11
5.88
6.49
6.90
7.14
7.22
7.20
7.04
6.75
6.32
5.80
5.23
4.62
3.87
2.93
1.81
0.70
-0.13
-0.42
-0.12
0.56
1.33
1.84
1.91
1.60
1.09
0.60
0.29
0.16
0.14
0.14
0.05
-0.17
-0.54
-1.01
-1.52
-1.97
-2.34
-2.78
-3.47
-4.58
-6.12
-7.86
-9.44
-10.49
-10.80
-10.45
-9.68
-8.73
-7.71
-6.57
-5.22
-3.65
-1.96
-0.29
1.23
2.53
3.63
4.52
5.14
5.41
5.34
5.03
4.66
4.40
4.25
4.12
3.84
3.36
2.79
2.36
2.27
2.55
3.04
3.45
3.53
3.17
2.48
1.69
1.03
0.64
0.60
0.88
1.33
1.78
1.96
1.73
1.06
0.14
-0.75
-1.27
-1.28
-0.91
-0.48
-0.34
-0.70
-1.58
-2.80
-4.17
-5.53
-6.85
-8.07
-9.05
-9.58
-9.41
-8.45
-6.84
-4.88
-2.92
-1.22
0.17
1.35
2.37
3.26
3.96
4.40
4.60
4.62
4.53
4.37
4.15
3.89
3.65
3.48
3.43
3.43
3.40
3.31
3.21
3.22
3.45
3.91
4.41
4.76
4.78
4.46
3.94
3.40
2.95
2.63
2.43
2.33
2.33
2.47
2.68
2.85
2.76
2.25
1.29
0.07
-1.15
-2.09
-2.68
-3.06
-3.47
-4.11
-5.04
-6.18
-7.37
-8.47
-9.47
-10.41
-11.31
-12.11
-12.61
-12.59
-11.96
-10.66
-8.80
-6.63
-4.41
-2.39
-0.71
0.63
1.79
2.90
4.10
5.42
6.72
7.82
8.55
8.79
8.56
8.05
7.41
6.79
6.20
5.58
4.91
4.22
3.60
3.18
3.05
3.13
3.28
3.40
3.44
3.53
3.77
4.20
4.70
5.08
5.15
4.86
4.34
3.73
3.21
2.75
2.24
1.50
0.37
-1.13
-2.88
-4.58
-6.03
-7.02
-7.55
-7.77
-7.85
-7.96
-8.13
-8.38
-8.62
-8.89
-9.23
-9.60
-9.85
-9.69
-8.83
-7.18
-4.94
-2.52
-0.41
1.03
1.75
1.91
1.83
1.75
1.82
2.07
2.50
3.09
3.73
4.33
4.72
4.76
4.43
3.81
3.04
2.31
1.76
1.50
1.55
1.88
2.36
2.84
3.16
3.20
2.92
2.48
2.05
1.79
1.75
1.85
1.99
2.04
1.99
1.88
1.74
1.56
1.27
0.79
0.07
-0.80
-1.71
-2.55
-3.17
-3.54
-3.67
-3.68
-3.77
-4.16
-4.97
-6.14
-7.42
-8.35
-8.56
-7.91
-6.58
-4.98
-3.52
-2.42
-1.67
-1.10
-0.55
0.04
0.63
1.14
1.52
1.79
1.98
2.15
2.33
2.55
2.79
3.10
3.45
3.77
3.96
3.94
3.75
3.50
3.31
3.27
3.39
3.60
3.75
3.76
3.59
3.31
3.05
2.91
2.93
2.97
2.84
2.34
1.42
0.23
-0.98
-1.95
-2.57
-2.93
-3.26
-3.77
-4.49
-5.29
-5.95
-6.36
-6.57
-6.79
-7.20
-7.83
-8.52
-8.95
-8.84
-8.09
-6.86
-5.48
-4.27
-3.41
-2.81
-2.23
-1.44
-0.33
1.05
2.52
3.87
4.92
5.58
5.81
5.64
5.10
4.34
3.52
2.82
2.39
2.27
2.41
2.74
3.19
3.71
4.32
4.98
5.63
6.21
6.68
7.04
7.31
7.53
7.68
7.69
7.48
6.96
6.10
4.92
3.55
2.16
0.91
-0.11
-0.91
-1.56
-2.17
-2.85
-3.67
-4.72
-6.00
-7.46
-8.97
-10.32
-11.34
-11.92
-12.07
-11.91
-11.50
-10.86
-9.92
-8.65
-7.17
-5.77
-4.77
-4.38
-4.54
-4.91
-5.03
-4.65
-3.77
-2.72
-1.92
-1.67
-1.97
-2.64
-3.42
-4.16
-4.87
-5.70
-6.80
-8.23
-9.90
-11.70
-13.44
-15.02
-16.40
-17.67
-18.95
-20.40
-22.21
-24.46
-27.16
-30.18
-33.40
-36.69
-40.04
-43.44
-46.95
-50.60
-54.37
-58.23
-62.13
-65.93
-69.37
-72.00
-73.15
-72.14
-68.54
-62.32
-53.85
-43.51
-31.37
-16.96
0.43
21.26
45.09
70.51
95.47
117.88
136.37
150.43
160.23
166.19
168.69
168.00
164.40
158.40
150.47
140.94
129.72
116.43
100.72
82.70
63.17
43.50
25.22
9.49
-3.14
-12.81
-20.07
-25.53
-29.57
-32.31
-33.67
-33.59
-32.27
-30.04
-27.40
-24.87
-22.83
-21.50
-20.95
-21.10
-21.82
-22.96
-24.25
-25.41
-26.08
-25.86
-24.50
-22.03
-18.95
-16.18
-14.93
-16.22
-20.56
-27.46
-35.45
-42.54
-46.91
-47.74
-45.68
-42.75
-41.54
-44.26
-51.64
-62.67
-75.03
-86.04
-93.71
-97.48
-98.19
-97.52
-97.18
-97.66
-97.81
-94.92
-85.46
-66.18
-35.36
6.30
55.49
106.39
152.66
188.91
212.10
222.30
222.46
217.29
211.81
209.80
212.00
216.55
219.34
215.95
204.14
185.46
165.04
149.35
143.05
145.54
151.80
154.47
147.63
129.70
103.72
75.16
47.27
24.67
6.12
-10.16
-25.08
-38.08
-47.95
-54.59
-59.84
-66.83
-78.19
-95.03
-114.97
-133.37
-145.02
-146.57
-138.40
-125.07
-114.04
-112.77
-125.95
-152.12
-183.67
-209.01
-216.63
-199.23
-156.52
-95.51
-28.47
30.41
69.77
84.36
76.38
54.45
30.20
14.17
12.54
26.13
51.29
82.56
114.94
145.13
171.70
194.52
214.35
232.35
249.53
265.95
280.28
289.99
292.51
286.55
272.78
253.47
231.23
207.89
184.34
161.01
138.57
117.97
99.64
82.73
65.03
43.76
16.99
-15.41
-51.60
-88.61
-123.70
-155.57
-184.80
-213.10
-242.41
-273.42
-305.18
-335.31
-361.00
-380.43
-393.69
-403.04
-412.21
-425.13
-444.22
-469.25
-496.97
-521.67
-536.62
-535.97
-516.59
-479.52
-430.39
-378.03
-331.96
-299.09
-281.16
-274.21
-270.43
-261.60
-242.49
-212.65
-175.64
-136.68
-100.17
-68.11
-40.44
-16.28
4.76
22.27
35.71
45.16
52.01
58.60
67.56
80.78
98.79
120.76
145.03
169.98
194.43
218.22
242.12
267.24
294.20
322.54
350.66
376.22
396.73
409.31
411.78
403.10
383.73
355.65
322.00
286.66
253.60
226.12
204.63
187.34
170.48
149.59
120.80
81.99
33.64
-20.84
-75.92
-127.13
-171.40
-208.05
-238.40
-265.07
-290.93
-318.29
-348.05
-368.59
-368.97
-342.32
-290.49
-223.22
-152.27
-86.18
-28.83
19.13
58.48
88.96
110.53
123.84
130.99
135.15
139.21
144.76
151.97
158.71
160.53
153.15
134.25
105.35
72.02
42.18
23.52
20.39
30.89
47.29
60.29
63.28
54.84
38.36
19.31
2.07
-12.02
-24.09
-35.97
-48.21
-59.61
-68.01
-71.68
-70.56
-65.40
-58.10
-50.44
-43.14
-35.59
-26.45
-14.59
-0.05
15.89
30.71
41.39
45.63
42.85
34.40
23.08
12.08
4.18
1.44
4.40
11.89
21.38
29.80
34.59
34.87
32.00
27.01
22.99
22.87
27.93
37.20
48.06
57.44
63.13
64.29
61.28
55.42
48.06
40.59
34.68
32.17
34.50
42.08
54.15
69.22
86.01
103.41
120.06
133.65
140.82
138.08
123.89
100.02
71.75
46.09
28.47
20.29
18.35
16.59
9.03
-7.43
-31.82
-59.63
-84.48
-100.47
-104.03
-94.94
-76.29
-53.41
-32.03
-16.68
-9.54
-10.39
-17.43
-28.15
-40.01
-50.45
-56.93
-57.16
-49.83
-35.51
-16.97
1.27
14.57
19.82
16.68
7.65
-3.04
-11.19
-14.15
-11.71
-5.74
0.84
5.28
6.04
3.10
-2.35
-8.56
-13.96
-17.62
-19.36
-19.52
-18.64
-17.21
-15.55
-13.87
-12.37
-11.22
-10.59
-10.54
-10.93
-11.45
-11.81
-11.78
-11.38
-10.86
-10.57
-10.85
-11.79
-13.23
-14.84
-16.24
-17.16
-17.42
-16.99
-15.78
-13.77
-10.96
-7.60
-4.25
-1.58
-0.14
0.02
-0.62
-1.21
-0.98
0.34
2.44
4.57
6.06
6.68
6.68
6.59
6.84
7.43
8.03
8.17
7.60
6.45
5.21
4.39
4.24
4.67
5.30
5.77
5.92
5.81
5.69
5.74
6.01
6.36
6.60
6.52
6.04
5.17
3.98
2.58
1.08
-0.40
-1.72
-2.77
-3.51
-3.96
-4.24
-4.47
-4.77
-5.24
-5.96
-6.95
-8.17
-9.49
-10.63
-11.25
-11.03
-9.90
-7.99
-5.71
-3.56
-1.89
-0.82
-0.16
0.45
1.31
2.58
4.19
5.91
7.46
8.63
9.32
9.52
9.25
8.53
7.47
6.25
5.13
4.42
4.39
5.09
6.40
7.95
9.36
10.33
10.79
10.78
10.40
9.75
8.81
7.57
6.06
4.41
2.82
1.48
0.48
-0.25
-0.86
-1.48
-2.22
-3.10
-4.15
-5.41
-6.87
-8.53
-10.25
-11.87
-13.24
-14.24
-14.80
-14.89
-14.50
-13.62
-12.29
-10.60
-8.80
-7.14
-5.80
-4.82
-4.08
-3.39
-2.60
-1.59
-0.33
1.12
2.72
4.39
6.06
7.59
8.80
9.50
9.58
9.01
7.95
6.67
5.48
4.57
4.02
3.79
3.79
3.93
4.17
4.51
4.90
5.24
5.39
5.32
5.05
4.70
4.36
4.05
3.69
3.15
2.36
1.39
0.41
-0.42
-0.99
-1.35
-1.63
-1.96
-2.38
-2.91
-3.55
-4.31
-5.24
-6.30
-7.40
-8.33
-8.85
-8.75
-7.92
-6.34
-4.14
-1.51
1.32
4.07
6.52
8.51
10.03
11.20
12.22
13.26
14.40
15.69
17.05
18.42
19.71
20.83
21.68
22.19
22.29
21.95
21.21
20.11
18.73
17.17
15.46
13.64
11.65
9.42
6.88
4.00
0.79
-2.69
-6.34
-10.08
-13.73
-17.12
-20.01
-22.15
-23.38
-23.75
-23.38
-22.52
-21.46
-20.41
-19.54
-18.92
-18.57
-18.39
-18.23
-17.81
-16.88
-15.32
-13.17
-10.60
-7.88
-5.29
-3.04
-1.20
0.27
1.48
2.52
3.41
4.03
4.21
3.86
3.04
2.06
1.23
0.81
0.83
1.15
1.59
2.03
2.48
2.97
3.51
3.99
4.34
4.54
4.70
4.89
5.13
5.22
4.91
4.06
2.75
1.31
0.19
-0.33
-0.18
0.43
1.21
1.80
1.99
1.66
0.85
-0.24
-1.38
-2.33
-2.97
-3.38
-3.80
-4.53
-5.72
-7.29
-8.88
-10.03
-10.34
-9.68
-8.25
-6.42
-4.60
-3.03
-1.75
-0.65
0.36
1.40
2.48
3.58
4.65
5.61
6.30
6.57
6.27
5.38
4.00
2.36
0.67
-0.84
-2.05
-2.96
-3.60
-4.06
-4.40
-4.69
-4.95
-5.19
-5.32
-5.32
-5.15
-4.85
-4.44
-4.00
-3.53
-3.09
-2.74
-2.44
-2.23
-2.04
-1.83
-1.59
-1.41
-1.40
-1.63
-2.15
-2.83
-3.53
-4.15
-4.62
-4.98
-5.32
-5.60
-5.71
-5.50
-4.85
-3.79
-2.49
-1.16
-0.02
0.81
1.37
1.81
2.25
2.82
3.57
4.48
5.54
6.65
7.68
8.43
8.75
8.55
7.87
6.88
5.76
4.74
3.88
3.27
2.92
2.85
3.04
3.37
3.62
3.49
2.79
1.47
-0.22
-1.96
-3.41
-4.31
-4.60
-4.33
-3.69
-2.89
-2.23
-1.95
-2.21
-3.00
-4.15
-5.41
-6.49
-7.26
-7.72
-7.95
-7.98
-7.80
-7.38
-6.79
-6.18
-5.63
-5.19
-4.70
-3.94
-2.76
-1.21
0.48
2.02
3.18
3.97
4.44
4.69
4.80
4.75
4.55
4.29
4.14
4.23
4.59
5.10
5.56
5.80
5.72
5.33
4.69
3.86
2.95
2.11
1.52
1.33
1.56
1.98
2.24
2.02
1.22
-0.01
-1.30
-2.31
-2.91
-3.19
-3.43
-3.87
-4.56
-5.45
-6.46
-7.55
-8.72
-9.86
-10.65
-10.67
-9.55
-7.33
-4.46
-1.74
0.17
1.02
1.06
0.90
1.07
1.84
3.09
4.54
5.95
7.17
8.12
8.67
8.68
7.93
6.42
4.33
2.04
-0.00
-1.44
-2.07
-1.84
-0.79
0.88
2.95
5.08
6.89
8.10
8.58
8.41
7.80
7.06
6.40
5.88
5.45
4.98
4.35
3.55
2.69
1.88
1.18
0.50
-0.36
-1.66
-3.51
-5.85
-8.43
-10.96
-13.20
-15.02
-16.33
-16.96
-16.71
-15.33
-12.79
-9.36
-5.60
-2.23
0.26
1.70
2.33
2.53
2.65
2.83
3.09
3.41
3.82
4.42
5.19
5.98
6.47
6.43
5.84
4.94
4.11
3.62
3.51
3.59
3.61
3.45
3.19
3.03
3.07
3.27
3.44
3.38
3.05
2.55
2.11
1.89
1.93
2.10
2.22
2.13
1.76
1.20
0.56
-0.01
-0.45
-0.78
-1.15
-1.70
-2.54
-3.65
-4.93
-6.21
-7.32
-8.20
-8.83
-9.17
-9.13
-8.59
-7.52
-6.01
-4.25
-2.49
-0.87
0.59
2.00
3.47
4.96
6.31
7.28
7.70
7.57
7.07
6.44
5.94
5.66
5.57
5.51
5.34
5.01
4.60
4.25
4.09
4.12
4.14
3.93
3.34
2.44
1.43
0.66
0.36
0.54
1.01
1.45
1.63
1.50
1.22
0.98
0.95
1.12
1.32
1.29
0.86
0.08
-0.88
-1.71
-2.20
-2.35
-2.33
-2.47
-3.00
-3.98
-5.22
-6.42
-7.25
-7.51
-7.17
-6.31
-5.09
-3.65
-2.12
-0.60
0.80
1.97
2.84
3.38
3.67
3.82
3.99
4.27
4.65
5.09
5.47
5.71
5.75
5.57
5.15
4.43
3.44
2.29
1.19
0.44
0.26
0.68
1.56
2.63
3.60
4.34
4.87
5.29
5.66
5.95
6.07
5.92
5.48
4.82
4.09
3.37
2.71
2.01
1.16
0.07
-1.26
-2.63
-3.78
-4.47
-4.64
-4.45
-4.20
-4.26
-4.84
-5.97
-7.38
-8.70
-9.49
-9.55
-8.85
-7.61
-6.12
-4.65
-3.35
-2.18
-1.11
-0.05
0.91
1.73
2.29
2.59
2.76
2.94
3.20
3.48
3.64
3.55
3.25
2.85
2.55
2.48
2.62
2.91
3.28
3.77
4.46
5.38
6.44
7.38
7.92
7.92
7.44
6.75
6.18
5.95
6.06
6.34
6.53
6.39
5.78
4.74
3.33
1.72
0.09
-1.34
-2.41
-3.08
-3.39
-3.56
-3.75
-4.20
-4.94
-5.91
-6.94
-7.87
-8.61
-9.07
-9.28
-9.26
-9.03
-8.58
-7.98
-7.33
-6.73
-6.28
-5.95
-5.67
-5.31
-4.80
-4.13
-3.38
-2.71
-2.12
-1.63
-1.11
-0.43
0.45
1.49
2.51
3.33
3.85
4.10
4.19
4.23
4.23
4.04
3.52
2.47
0.99
-0.62
-1.86
-2.30
-1.73
-0.41
1.02
1.80
1.39
-0.26
-2.56
-4.68
-5.84
-5.75
-4.69
-3.45
-2.84
-3.49
-5.66
-9.20
-13.54
-17.47
-19.22
-16.73
-8.45
5.71
23.89
42.52
57.43
65.32
64.88
56.98
44.13
29.31
14.95
2.54
-7.30
-14.43
-18.85
-20.63
-20.06
-17.70
-14.40
-11.13
-8.69
-7.44
-7.13
-7.10
-6.61
-5.26
-3.22
-1.19
0.04
-0.03
-1.35
-3.29
-5.01
-5.85
-5.55
-4.33
-2.69
-1.15
-0.06
0.47
0.57
0.41
0.21
0.07
0.02
-0.00
-0.13
-0.44
-0.98
-1.72
-2.54
-3.29
-3.78
-3.87
-3.53
-2.93
-2.27
-1.75
-1.45
-1.36
-1.44
-1.64
-2.04
-2.68
-3.53
-4.43
-5.14
-5.57
-5.76
-5.91
-6.18
-6.53
-6.70
-6.38
-5.36
-3.79
-2.04
-0.51
0.51
1.06
1.33
1.62
2.08
2.75
3.46
4.01
4.23
4.06
3.57
2.92
2.30
1.81
1.47
1.17
0.79
0.30
-0.19
-0.50
-0.50
-0.16
0.36
0.87
1.17
1.26
1.24
1.24
1.40
1.73
2.15
2.58
2.98
3.36
3.72
4.07
4.32
4.34
4.02
3.32
2.31
1.19
0.15
-0.63
-1.05
-1.13
-0.97
-0.77
-0.73
-1.04
-1.80
-2.96
-4.36
-5.70
-6.71
-7.21
-7.19
-6.80
-6.28
-5.85
-5.63
-5.64
-5.77
-5.91
-5.90
-5.57
-4.86
-3.78
-2.45
-1.06
0.17
1.15
1.87
2.44
2.94
3.39
3.76
3.95
3.99
3.90
3.82
3.79
3.82
3.81
3.65
3.35
3.02
2.83
2.90
3.21
3.55
3.70
3.51
3.01
2.38
1.84
1.52
1.44
1.49
1.53
1.56
1.59
1.68
1.87
2.05
2.11
1.95
1.48
0.74
-0.23
-1.33
-2.51
-3.63
-4.64
-5.45
-6.07
-6.55
-6.94
-7.22
-7.35
-7.31
-7.10
-6.89
-6.85
-7.09
-7.48
-7.75
-7.59
-6.86
-5.64
-4.17
-2.72
-1.44
-0.29
0.77
1.75
2.47
2.76
2.53
1.98
1.42
1.16
1.35
1.82
2.28
2.46
2.31
1.97
1.65
1.50
1.50
1.55
1.49
1.27
0.99
0.80
0.80
0.97
1.16
1.18
0.96
0.52
-0.01
-0.46
-0.73
-0.81
-0.74
-0.56
-0.30
0.02
0.29
0.40
0.29
-0.04
-0.45
-0.79
-1.01
-1.21
-1.60
-2.40
-3.75
-5.60
-7.79
-9.99
-11.87
-13.14
-13.57
-13.09
-11.78
-9.88
-7.66
-5.38
-3.12
-0.90
1.31
3.52
5.60
7.43
8.84
9.73
10.09
9.95
9.37
8.47
7.38
6.26
5.25
4.47
4.00
3.82
3.91
4.24
4.81
5.65
6.73
7.96
9.11
9.91
10.08
9.56
8.47
7.12
5.87
4.94
4.32
3.85
3.34
2.70
1.97
1.29
0.74
0.34
-0.05
-0.52
-1.08
-1.63
-2.02
-2.22
-2.31
-2.56
-3.17
-4.22
-5.55
-6.90
-8.03
-8.86
-9.47
-10.01
-10.54
-10.94
-11.00
-10.50
-9.39
-7.88
-6.28
-4.85
-3.73
-2.87
-2.09
-1.23
-0.22
0.94
2.12
3.20
4.15
4.94
5.58
6.03
6.16
5.89
5.18
4.15
3.06
2.22
1.86
2.01
2.53
3.19
3.72
4.00
4.00
3.79
3.49
3.18
2.94
2.83
2.87
3.02
3.19
3.24
3.11
2.85
2.55
2.41
2.52
2.79
3.03
2.92
2.28
1.07
-0.52
-2.17
-3.61
-4.72
-5.53
-6.17
-6.70
-7.12
-7.33
-7.28
-7.01
-6.70
-6.52
-6.57
-6.68
-6.54
-5.91
-4.69
-3.08
-1.43
-0.07
0.88
1.44
1.78
2.03
2.24
2.41
2.50
2.52
2.49
2.48
2.45
2.42
2.41
2.49
2.72
3.05
3.38
3.55
3.45
3.12
2.75
2.51
2.56
2.87
3.27
3.54
3.55
3.34
3.02
2.82
2.77
2.87
2.95
2.86
2.49
1.86
1.04
0.13
-0.81
-1.80
-2.86
-4.03
-5.24
-6.40
-7.43
-8.30
-8.96
-9.46
-9.79
-10.01
-10.19
-10.27
-10.19
-9.80
-9.03
-7.84
-6.36
-4.78
-3.40
-2.38
-1.79
-1.46
-1.14
-0.53
0.55
2.05
3.73
5.19
6.10
6.31
5.96
5.42
5.02
4.93
5.04
5.09
4.88
4.38
3.81
3.45
3.46
3.78
4.09
4.07
3.53
2.52
1.33
0.34
-0.21
-0.27
-0.02
0.27
0.41
0.33
0.08
-0.21
-0.45
-0.66
-0.90
-1.28
-1.85
-2.60
-3.47
-4.39
-5.33
-6.26
-7.14
-7.87
-8.36
-8.49
-8.17
-7.34
-5.99
-4.19
-2.19
-0.27
1.30
2.34
2.86
3.01
3.07
3.26
3.69
4.22
4.62
4.67
4.29
3.55
2.60
1.66
0.87
0.33
0.11
0.25
0.83
1.83
3.19
4.69
6.07
7.10
7.62
7.65
7.30
6.74
6.10
5.54
5.14
4.98
5.06
5.39
5.92
6.56
7.15
7.50
7.46
6.98
6.11
4.99
3.75
2.46
1.10
-0.38
-1.98
-3.59
-5.04
-6.15
-6.78
-6.94
-6.68
-6.14
-5.42
-4.66
-3.94
-3.34
-2.88
-2.48
-2.11
-1.75
-1.39
-1.07
-0.79
-0.50
-0.13
0.34
0.89
1.43
1.84
2.05
2.05
1.92
1.79
1.77
1.94
2.28
2.67
2.98
3.07
2.81
2.28
1.61
0.98
0.56
0.48
0.80
1.46
2.32
3.14
3.69
3.79
3.39
2.56
1.53
0.52
-0.22
-0.61
-0.68
-0.60
-0.60
-0.86
-1.42
-2.23
-3.15
-4.01
-4.73
-5.34
-5.94
-6.59
-7.31
-8.02
-8.59
-8.98
-9.13
-9.03
-8.69
-8.02
-6.92
-5.32
-3.28
-0.92
1.40
3.35
4.68
5.35
5.44
5.16
4.68
4.10
3.44
2.73
2.13
1.81
1.92
2.41
3.05
3.53
3.60
3.23
2.60
2.02
1.76
1.95
2.55
3.42
4.40
5.36
6.15
6.58
6.48
5.76
4.45
2.79
1.11
-0.30
-1.26
-1.73
-1.79
-1.56
-1.15
-0.71
-0.34
-0.26
-0.63
-1.50
-2.78
-4.23
-5.55
-6.57
-7.23
-7.56
-7.63
-7.48
-7.06
-6.39
-5.54
-4.63
-3.80
-3.06
-2.23
-1.11
0.36
2.06
3.62
4.64
4.91
4.44
3.55
2.71
2.30
2.51
3.33
4.47
5.59
6.38
6.63
6.32
5.59
4.66
3.75
3.01
2.50
2.23
2.21
2.42
2.83
3.25
3.52
3.52
3.29
3.01
2.94
3.23
3.79
4.37
4.64
4.34
3.41
2.03
0.39
-1.30
-2.96
-4.64
-6.37
-8.12
-9.73
-10.95
-11.52
-11.31
-10.40
-9.10
-7.78
-6.78
-6.22
-5.99
-5.89
-5.68
-5.24
-4.55
-3.68
-2.72
-1.73
-0.77
0.08
0.77
1.24
1.51
1.61
1.59
1.48
1.26
0.96
0.63
0.39
0.35
0.62
1.18
1.97
2.89
3.86
4.83
5.80
6.74
7.65
8.46
9.06
9.26
8.87
7.71
5.80
3.35
0.70
-1.76
-3.80
-5.37
-6.56
-7.45
-8.03
-8.20
-7.89
-7.20
-6.44
-6.01
-6.19
-7.00
-8.16
-9.23
-9.83
-9.75
-9.02
-7.81
-6.30
-4.66
-3.06
-1.66
-0.63
-0.08
0.02
-0.11
-0.18
0.08
0.77
1.83
3.03
4.18
5.13
5.82
6.24
6.43
6.41
6.21
5.91
5.64
5.54
5.72
6.17
6.79
7.28
7.40
6.98
6.07
4.86
3.57
2.37
1.28
0.32
-0.52
-1.20
-1.64
-1.91
-2.20
-2.71
-3.58
-4.71
-5.82
-6.64
-7.09
-7.28
-7.45
-7.70
-7.98
-7.98
-7.40
-6.13
-4.30
-2.27
-0.46
0.77
1.31
1.14
0.42
-0.62
-1.71
-2.63
-3.19
-3.31
-2.99
-2.29
-1.28
-0.12
1.03
1.95
2.46
2.44
1.92
1.08
0.18
-0.52
-0.88
-0.89
-0.72
-0.56
-0.55
-0.78
-1.19
-1.68
-2.15
-2.58
-3.07
-3.83
-5.03
-6.73
-8.83
-11.11
-13.28
-15.16
-16.72
-18.21
-19.97
-22.39
-25.62
-29.49
-33.47
-36.79
-38.88
-39.61
-39.52
-39.63
-40.99
-44.08
-48.57
-53.38
-57.16
-58.91
-58.45
-56.47
-54.28
-53.38
-55.07
-60.04
-67.88
-76.74
-83.16
-82.77
-71.75
-48.55
-15.02
23.71
60.94
90.73
109.89
118.56
119.14
114.42
105.99
93.82
76.88
54.39
26.66
-4.67
-36.96
-66.87
-90.65
-104.54
-105.55
-92.54
-66.99
-32.95
4.04
38.59
66.76
86.68
98.29
102.69
101.56
96.96
91.02
85.57
81.56
78.63
75.42
70.35
62.73
53.36
44.42
38.41
37.18
41.22
49.62
60.47
71.60
81.03
87.39
89.99
88.71
83.80
75.83
65.53
53.78
41.58
29.90
19.48
10.71
3.55
-2.33
-7.29
-11.64
-15.44
-18.66
-21.23
-23.16
-24.58
-25.67
-26.58
-27.40
-28.11
-28.70
-29.19
-29.71
-30.40
-31.37
-32.60
-33.85
-34.76
-35.02
-34.48
-33.21
-31.52
-29.74
-28.09
-26.67
-25.43
-24.31
-23.22
-22.06
-20.67
-18.89
-16.57
-13.76
-10.74
-7.91
-5.66
-4.11
-3.17
-2.56
-2.08
-1.68
-1.44
-1.47
-1.75
-2.13
-2.34
-2.15
-1.47
-0.42
0.76
1.71
2.17
1.93
0.98
-0.55
-2.42
-4.35
-6.09
-7.54
-8.68
-9.55
-10.17
-10.52
-10.59
-10.33
-9.79
-9.04
-8.22
-7.41
-6.65
-5.91
-5.11
-4.23
-3.26
-2.26
-1.36
-0.67
-0.21
0.03
0.20
0.50
1.10
2.04
3.16
4.16
4.70
4.63
4.02
3.17
2.45
2.11
2.14
2.30
2.29
1.92
1.21
0.35
-0.45
-1.03
-1.39
-1.56
-1.56
-1.33
-0.76
0.16
1.40
2.81
4.22
5.43
6.25
6.54
6.21
5.27
3.82
2.11
0.47
-0.81
-1.57
-1.88
-1.93
-2.00
-2.26
-2.80
-3.59
-4.50
-5.46
-6.45
-7.43
-8.26
-8.70
-8.47
-7.39
-5.52
-3.14
-0.67
1.50
3.17
4.26
4.80
4.79
4.24
3.23
1.97
0.77
-0.01
-0.18
0.20
0.89
1.57
2.08
2.37
2.53
2.63
2.67
2.59
2.33
1.89
1.38
1.00
0.87
1.09
1.62
2.32
3.01
3.53
3.74
3.64
3.31
2.85
2.36
1.88
1.36
0.74
-0.04
-1.02
-2.16
-3.38
-4.54
-5.49
-6.12
-6.34
-6.16
-5.62
-4.83
-3.96
-3.14
-2.57
-2.33
-2.42
-2.74
-3.08
-3.28
-3.21
-2.89
-2.37
-1.71
-0.94
-0.13
0.55
0.91
0.80
0.25
-0.56
-1.31
-1.70
-1.56
-0.88
0.15
1.31
2.41
3.38
4.22
5.00
5.71
6.29
6.58
6.45
5.85
4.88
3.79
2.88
2.38
2.35
2.70
3.23
3.75
4.03
3.90
3.22
1.92
0.13
-1.87
-3.77
-5.26
-6.28
-6.90
-7.27
-7.52
-7.73
-7.88
-7.94
-7.89
-7.63
-7.10
-6.24
-5.02
-3.54
-1.98
-0.49
0.85
2.04
3.17
4.25
5.29
6.17
6.82
7.20
7.30
7.19
6.89
6.46
5.90
5.21
4.34
3.29
2.08
0.82
-0.34
-1.22
-1.73
-1.94
-1.98
-2.07
-2.32
-2.72
-3.21
-3.68
-4.06
-4.33
-4.58
-4.92
-5.52
-6.54
-8.03
-9.94
-12.11
-14.26
-16.13
-17.53
-18.46
-19.04
-19.56
-20.33
-21.62
-23.47
-25.73
-28.02
-29.99
-31.51
-32.79
-34.23
-36.22
-38.93
-42.18
-45.53
-48.57
-51.16
-53.50
-56.11
-59.49
-63.89
-69.17
-74.82
-80.13
-84.47
-87.49
-89.29
-90.34
-91.23
-92.21
-92.88
-92.01
-87.70
-77.87
-60.65
-35.03
-1.29
38.78
81.81
123.46
159.18
185.38
200.31
204.53
200.54
191.86
181.97
173.42
167.61
164.87
164.85
166.81
169.80
172.84
174.97
175.42
173.74
169.71
163.19
153.96
141.67
126.01
106.92
84.77
60.25
34.32
8.10
-17.20
-40.17
-59.29
-73.29
-81.49
-84.29
-83.16
-80.27
-77.69
-76.77
-77.69
-79.70
-81.68
-82.68
-82.33
-80.84
-78.63
-76.08
-73.29
-70.13
-66.40
-62.01
-57.06
-51.83
-46.71
-42.03
-37.96
-34.51
-31.53
-28.90
-26.58
-24.68
-23.40
-22.82
-22.76
-22.78
-22.45
-21.43
-19.81
-17.98
-16.43
-15.54
-15.38
-15.67
-15.95
-15.81
-14.98
-13.44
-11.30
-8.70
-5.79
-2.69
0.43
3.31
5.68
7.32
8.21
8.50
8.51
8.57
8.88
9.49
10.28
11.06
11.58
11.65
11.10
9.93
8.24
6.23
4.21
2.38
0.85
-0.38
-1.37
-2.18
-2.77
-3.13
-3.28
-3.28
-3.29
-3.40
-3.57
-3.69
-3.59
-3.17
-2.51
-1.82
-1.36
-1.41
-2.04
-3.17
-4.58
-6.08
-7.50
-8.78
-10.03
-11.28
-12.62
-13.98
-15.13
-15.79
-15.71
-14.75
-12.96
-10.57
-7.83
-5.06
-2.47
-0.17
1.74
3.16
4.03
4.26
3.87
3.03
1.97
0.96
0.23
-0.18
-0.33
-0.36
-0.38
-0.39
-0.34
-0.14
0.21
0.61
0.85
0.84
0.56
0.16
-0.21
-0.43
-0.48
-0.39
-0.19
0.08
0.46
0.94
1.42
1.79
1.95
1.84
1.53
1.10
0.57
-0.07
-0.91
-2.05
-3.47
-5.07
-6.65
-7.94
-8.72
-8.84
-8.31
-7.27
-5.92
-4.48
-3.12
-1.94
-0.94
-0.09
0.71
1.56
2.49
3.46
4.39
5.12
5.59
5.88
6.13
6.49
7.02
7.54
7.78
7.53
6.70
5.44
4.04
2.78
1.83
1.25
0.90
0.68
0.47
0.17
-0.23
-0.74
-1.24
-1.65
-1.90
-2.07
-2.29
-2.69
-3.32
-4.08
-4.80
-5.33
-5.64
-5.83
-6.05
-6.32
-6.55
-6.58
-6.24
-5.50
-4.44
-3.26
-2.16
-1.19
-0.32
0.56
1.52
2.55
3.51
4.17
4.36
4.09
3.60
3.13
2.96
3.14
3.57
3.97
4.17
4.19
4.20
4.36
4.65
4.90
4.82
4.24
3.22
2.02
0.95
0.24
-0.09
-0.19
-0.26
-0.40
-0.62
-0.83
-0.98
-1.12
-1.39
-1.92
-2.77
-3.88
-5.08
-6.24
-7.18
-7.83
-8.19
-8.29
-8.17
-7.84
-7.24
-6.26
-4.87
-3.10
-1.14
0.72
2.23
3.21
3.67
3.74
3.61
3.37
3.11
2.88
2.79
2.99
3.58
4.53
5.67
6.73
7.43
7.67
7.52
7.15
6.78
6.50
6.32
6.14
5.88
5.48
4.99
4.46
3.87
3.16
2.23
1.04
-0.34
-1.73
-2.88
-3.60
-3.86
-3.83
-3.76
-3.91
-4.41
-5.19
-6.09
-6.90
-7.55
-8.05
-8.46
-8.81
-8.99
-8.87
-8.27
-7.18
-5.72
-4.17
-2.86
-2.01
-1.68
-1.74
-1.90
-1.81
-1.17
0.17
2.11
4.38
6.67
8.61
10.02
10.84
11.15
11.03
10.61
9.95
9.09
8.14
7.22
6.44
5.82
5.30
4.76
4.04
3.13
2.09
1.14
0.47
0.24
0.39
0.71
0.94
0.85
0.39
-0.35
-1.17
-1.90
-2.41
-2.71
-2.85
-2.89
-2.93
-2.99
-3.20
-3.60
-4.23
-5.00
-5.79
-6.46
-6.91
-7.19
-7.35
-7.48
-7.51
-7.29
-6.61
-5.36
-3.67
-1.84
-0.30
0.65
0.99
0.94
0.93
1.31
2.23
3.56
4.97
6.10
6.77
7.00
6.96
6.84
6.74
6.59
6.24
5.60
4.70
3.76
3.04
2.68
2.62
2.62
2.40
1.82
0.95
0.08
-0.49
-0.58
-0.23
0.32
0.81
0.99
0.78
0.20
-0.69
-1.78
-2.95
-4.03
-4.89
-5.46
-5.81
-6.12
-6.58
-7.25
-8.02
-8.71
-9.09
-9.06
-8.62
-7.82
-6.69
-5.25
-3.54
-1.59
0.43
2.39
4.12
5.54
6.60
7.32
7.74
7.89
7.85
7.65
7.33
6.96
6.60
6.34
6.24
6.31
6.49
6.61
6.49
6.04
5.31
4.47
3.69
3.14
2.83
2.70
2.58
2.32
1.90
1.36
0.82
0.39
0.14
0.03
-0.01
-0.10
-0.35
-0.74
-1.24
-1.76
-2.26
-2.77
-3.37
-4.14
-5.06
-6.08
-7.05
-7.84
-8.37
-8.67
-8.85
-9.03
-9.19
-9.24
-9.01
-8.32
-7.17
-5.63
-3.90
-2.21
-0.71
0.55
1.63
2.58
3.49
4.29
4.94
5.36
5.54
5.50
5.34
5.16
5.05
5.09
5.24
5.39
5.47
5.36
5.05
4.62
4.24
4.04
4.11
4.41
4.81
5.11
5.13
4.78
4.08
3.19
2.31
1.57
1.06
0.70
0.38
0.01
-0.47
-1.00
-1.49
-1.87
-2.16
-2.41
-2.70
-3.07
-3.55
-4.14
-4.90
-5.86
-6.97
-8.11
-9.08
-9.63
-9.61
-8.91
-7.61
-5.90
-4.01
-2.17
-0.57
0.63
1.40
1.78
1.98
2.18
2.49
2.92
3.38
3.75
3.93
3.90
3.68
3.32
2.85
2.30
1.77
1.38
1.22
1.30
1.55
1.76
1.81
1.61
1.25
0.92
0.82
1.07
1.58
2.19
2.60
2.63
2.23
1.51
0.68
-0.11
-0.74
-1.30
-1.85
-2.46
-3.08
-3.63
-4.08
-4.57
-5.33
-6.49
-8.00
-9.55
-10.72
-11.14
-10.70
-9.63
-8.30
-7.02
-5.89
-4.80
-3.55
-2.06
-0.47
1.03
2.23
3.13
3.87
4.60
5.35
6.03
6.49
6.59
6.46
6.25
6.14
6.12
6.06
5.81
5.40
5.00
4.82
5.02
5.51
6.02
6.24
5.99
5.33
4.45
3.60
2.90
2.42
2.09
1.89
1.80
1.81
1.90
2.03
2.08
1.82
1.06
-0.38
-2.48
-4.98
-7.44
-9.45
-10.72
-11.31
-11.50
-11.63
-11.93
-12.32
-12.51
-12.12
-10.95
-9.04
-6.68
-4.29
-2.26
-0.80
0.12
0.72
1.27
2.00
2.95
4.00
4.89
5.41
5.46
5.11
4.56
3.95
3.39
2.90
2.48
2.10
1.81
1.62
1.55
1.64
1.89
2.42
3.29
4.51
5.93
7.28
8.21
8.50
8.15
7.31
6.32
5.46
4.85
4.45
4.07
3.49
2.60
1.52
0.45
-0.36
-0.80
-0.96
-1.10
-1.46
-2.16
-3.09
-3.98
-4.61
-4.95
-5.20
-5.69
-6.68
-8.21
-10.01
-11.63
-12.57
-12.59
-11.68
-10.10
-8.25
-6.43
-4.81
-3.38
-2.01
-0.60
0.85
2.19
3.25
3.90
4.20
4.33
4.55
4.97
5.63
6.31
6.78
6.85
6.47
5.74
4.86
4.02
3.33
2.83
2.54
2.49
2.76
3.39
4.41
5.73
7.06
8.07
8.46
8.16
7.33
6.33
5.45
4.84
4.39
3.86
3.03
1.90
0.59
-0.73
-1.99
-3.26
-4.66
-6.20
-7.76
-9.08
-9.99
-10.47
-10.70
-10.87
-11.14
-11.51
-11.90
-12.14
-12.06
-11.53
-10.41
-8.61
-6.22
-3.54
-0.97
1.09
2.47
3.34
4.09
5.04
6.30
7.69
8.81
9.40
9.43
9.16
8.92
8.93
9.14
9.27
8.99
8.13
6.80
5.31
3.97
3.00
2.42
2.10
1.90
1.69
1.52
1.47
1.61
1.87
2.09
2.12
1.76
1.02
-0.06
-1.32
-2.61
-3.83
-4.91
-5.84
-6.52
-6.96
-7.15
-7.20
-7.30
-7.62
-8.25
-9.07
-9.89
-10.45
-10.64
-10.39
-9.82
-9.04
-8.13
-7.09
-5.87
-4.45
-2.83
-1.08
0.73
2.45
3.93
5.00
5.56
5.65
5.45
5.22
5.20
5.54
6.18
6.97
7.72
8.30
8.70
8.93
9.07
9.17
9.26
9.29
9.28
9.17
8.87
8.33
7.53
6.52
5.39
4.25
3.15
2.09
1.09
0.11
-0.79
-1.55
-2.10
-2.40
-2.52
-2.60
-2.79
-3.25
-4.07
-5.19
-6.51
-7.84
-9.04
-10.04
-10.82
-11.37
-11.61
-11.48
-10.85
-9.73
-8.28
-6.72
-5.28
-4.10
-3.09
-2.08
-0.92
0.48
1.99
3.38
4.50
5.28
5.81
6.21
6.54
6.76
6.77
6.49
5.95
5.33
4.82
4.58
4.67
5.02
5.52
6.04
6.55
7.04
7.53
7.98
8.30
8.40
8.22
7.77
7.14
6.42
5.64
4.79
3.78
2.65
1.54
0.64
0.12
-0.01
0.08
0.04
-0.44
-1.51
-3.07
-4.80
-6.35
-7.53
-8.34
-9.00
-9.76
-10.78
-11.97
-13.08
-13.73
-13.60
-12.58
-10.77
-8.47
-6.04
-3.80
-1.94
-0.49
0.64
1.56
2.39
3.15
3.77
4.17
4.25
4.04
3.61
3.12
2.71
2.50
2.51
2.68
2.98
3.36
3.82
4.37
4.98
5.57
6.06
6.32
6.24
5.80
5.01
3.97
2.81
1.67
0.68
-0.05
-0.47
-0.65
-0.68
-0.72
-0.95
-1.37
-1.92
-2.44
-2.80
-3.00
-3.17
-3.52
-4.24
-5.41
-6.84
-8.30
-9.48
-10.23
-10.53
-10.46
-10.05
-9.33
-8.22
-6.67
-4.74
-2.57
-0.42
1.51
3.05
4.23
5.12
5.85
6.44
6.81
6.86
6.58
6.15
5.87
6.02
6.69
7.68
8.66
9.31
9.51
9.37
9.13
8.95
8.80
8.52
7.87
6.81
5.39
3.87
2.50
1.44
0.72
0.27
0.01
-0.19
-0.38
-0.63
-0.96
-1.37
-1.85
-2.35
-2.86
-3.38
-3.95
-4.61
-5.40
-6.29
-7.27
-8.33
-9.46
-10.66
-11.82
-12.71
-13.05
-12.64
-11.48
-9.84
-8.15
-6.74
-5.79
-5.20
-4.65
-3.82
-2.57
-0.92
0.96
2.86
4.69
6.39
7.91
9.20
10.15
10.65
10.66
10.29
9.68
9.02
8.35
7.65
6.83
5.87
4.87
4.02
3.53
3.48
3.77
4.11
4.27
4.10
3.67
3.21
2.92
2.83
2.74
2.34
1.42
0.01
-1.60
-3.05
-4.08
-4.73
-5.25
-5.96
-7.02
-8.38
-9.77
-10.96
-11.83
-12.37
-12.64
-12.65
-12.30
-11.45
-10.07
-8.25
-6.23
-4.31
-2.70
-1.45
-0.49
0.31
1.11
1.96
2.84
3.72
4.54
5.25
5.84
6.26
6.51
6.58
6.53
6.44
6.37
6.34
6.34
6.33
6.29
6.22
6.14
6.03
5.82
5.48
5.02
4.55
4.24
4.18
4.30
4.43
4.33
3.89
3.14
2.23
1.33
0.51
-0.26
-1.03
-1.76
-2.36
-2.76
-2.97
-3.20
-3.70
-4.59
-5.80
-7.02
-7.92
-8.29
-8.11
-7.50
-6.69
-5.79
-4.89
-4.06
-3.37
-2.87
-2.55
-2.25
-1.73
-0.85
0.41
1.88
3.36
4.66
5.73
6.56
7.14
7.41
7.30
6.82
6.08
5.24
4.43
3.68
2.90
2.04
1.07
0.12
-0.66
-1.17
-1.45
-1.57
-1.61
-1.64
-1.63
-1.62
-1.66
-1.88
-2.33
-2.97
-3.65
-4.19
-4.58
-4.93
-5.46
-6.31
-7.41
-8.51
-9.27
-9.42
-8.91
-7.89
-6.63
-5.41
-4.38
-3.53
-2.77
-1.92
-0.89
0.30
1.55
2.67
3.55
4.13
4.45
4.59
4.70
4.83
5.05
5.38
5.78
6.21
6.61
6.94
7.19
7.39
7.55
7.63
7.58
7.27
6.66
5.75
4.65
3.54
2.57
1.77
1.13
0.59
0.10
-0.34
-0.66
-0.85
-0.87
-0.74
-0.57
-0.42
-0.44
-0.76
-1.47
-2.65
-4.26
-6.18
-8.21
-10.16
-11.80
-12.93
-13.43
-13.19
-12.26
-10.80
-9.06
-7.32
-5.74
-4.30
-2.85
-1.23
0.69
2.81
4.93
6.77
8.13
8.93
9.22
9.15
8.85
8.47
8.06
7.70
7.48
7.44
7.63
7.99
8.41
8.71
8.72
8.35
7.58
6.57
5.51
4.52
3.69
2.99
2.37
1.80
1.33
1.01
0.91
1.01
1.18
1.21
0.93
0.26
-0.75
-1.93
-3.11
-4.14
-4.94
-5.57
-6.14
-6.80
-7.70
-8.93
-10.44
-12.06
-13.49
-14.38
-14.47
-13.68
-12.10
-9.99
-7.65
-5.37
-3.33
-1.65
-0.33
0.70
1.56
2.38
3.22
4.00
4.56
4.74
4.52
4.02
3.49
3.11
2.95
2.96
3.02
3.09
3.18
3.37
3.66
3.93
3.98
3.62
2.84
1.81
0.82
0.12
-0.18
-0.20
-0.22
-0.58
-1.53
-3.01
-4.68
-6.04
-6.64
-6.32
-5.25
-3.89
-2.81
-2.48
-3.16
-4.87
-7.39
-10.36
-13.29
-15.75
-17.50
-18.56
-19.23
-19.83
-20.63
-21.60
-22.55
-23.29
-23.85
-24.47
-25.56
-27.33
-29.79
-32.58
-35.34
-37.79
-40.02
-42.36
-45.27
-49.06
-53.69
-58.84
-63.98
-68.57
-72.33
-75.19
-77.30
-78.79
-79.71
-79.98
-79.55
-78.16
-75.14
-69.13
-58.06
-39.76
-12.97
21.71
61.38
101.44
136.97
164.30
181.96
190.76
192.96
191.06
186.97
181.68
175.54
168.70
161.32
153.52
145.29
136.25
125.93
114.00
100.71
86.86
73.61
61.89
51.93
43.15
34.43
24.76
13.80
2.18
-8.86
-17.95
-24.28
-27.84
-29.30
-29.60
-29.49
-29.33
-29.06
-28.49
-27.57
-26.45
-25.55
-25.31
-26.10
-28.18
-31.61
-36.31
-42.00
-48.17
-54.10
-58.97
-62.03
-62.83
-61.32
-57.87
-53.09
-47.72
-42.38
-37.56
-33.59
-30.60
-28.57
-27.29
-26.41
-25.58
-24.60
-23.46
-22.31
-21.37
-20.77
-20.47
-20.28
-20.01
-19.47
-18.60
-17.36
-15.71
-13.64
-11.25
-8.70
-6.23
-4.06
-2.26
-0.74
0.72
2.25
3.87
5.37
6.47
6.99
6.90
6.46
6.01
5.80
5.89
6.11
6.15
5.76
4.93
3.89
3.05
2.76
3.09
3.87
4.67
5.13
5.10
4.73
4.26
3.93
3.77
3.63
3.37
2.95
2.46
2.08
1.94
1.98
2.06
2.02
1.77
1.38
0.94
0.49
0.03
-0.53
-1.24
-2.10
-2.98
-3.79
-4.41
-4.67
-4.46
-3.61
-2.08
0.04
2.48
4.77
6.39
7.01
6.62
5.58
4.50
3.93
4.20
5.29
6.78
8.09
8.69
8.33
7.19
5.81
4.86
4.80
5.74
7.26
8.68
9.26
8.43
5.94
1.86
-3.47
-9.45
-15.24
-19.95
-23.00
-24.72
-26.49
-30.29
-37.76
-49.15
-62.95
-76.29
-86.12
-90.43
-88.88
-82.58
-73.29
-62.63
-51.77
-41.53
-32.72
-26.22
-22.94
-23.42
-27.65
-35.02
-44.42
-54.48
-63.61
-70.42
-73.95
-74.03
-71.46
-67.73
-64.61
-63.39
-64.30
-66.26
-67.03
-63.77
-53.91
-36.00
-10.05
22.59
59.92
99.75
139.91
178.05
211.54
237.63
253.96
259.14
252.86
235.65
208.52
172.80
130.74
86.20
44.78
12.72
-5.09
-7.25
3.40
20.78
37.87
49.32
52.84
49.26
41.10
31.02
20.62
10.31
-0.13
-10.82
-21.19
-30.17
-36.63
-40.03
-40.82
-40.33
-40.15
-41.36
-43.95
-46.68
-47.69
-45.37
-39.19
-30.07
-19.99
-11.20
-5.31
-2.74
-2.83
-4.42
-6.56
-8.73
-10.81
-12.63
-13.73
-13.46
-11.35
-7.58
-3.08
0.65
2.16
0.66
-3.67
-9.77
-16.16
-21.47
-24.99
-26.79
-27.51
-27.91
-28.48
-29.23
-29.78
-29.78
-29.10
-28.07
-27.16
-26.71
-26.71
-26.74
-26.21
-24.61
-21.82
-18.11
-14.04
-10.15
-6.74
-3.78
-0.95
2.02
5.28
8.60
11.55
13.62
14.51
14.25
13.18
11.80
10.47
9.36
8.37
7.32
6.15
4.96
4.05
3.69
4.10
5.13
6.46
7.75
8.74
9.39
9.75
9.88
9.76
9.40
8.77
7.97
7.04
6.01
4.86
3.51
1.99
0.46
-0.83
-1.70
-2.14
-2.34
-2.60
-3.03
-3.61
-4.09
-4.24
-3.97
-3.34
-2.51
-1.61
-0.74
0.21
1.33
2.71
4.37
6.19
8.01
9.67
11.01
11.94
12.43
12.51
12.15
11.38
10.12
8.40
6.35
4.23
2.42
1.23
0.73
0.68
0.75
0.57
0.09
-0.59
-1.31
-1.95
-2.59
-3.42
-4.53
-5.77
-6.84
-7.38
-7.18
-6.34
-5.12
-3.88
-2.86
-2.19
-1.83
-1.78
-1.98
-2.32
-2.71
-2.98
-3.07
-2.97
-2.71
-2.30
-1.74
-0.98
0.00
1.15
2.35
3.40
4.14
4.53
4.57
4.36
3.99
3.52
2.99
2.46
1.98
1.66
1.55
1.63
1.84
2.04
2.16
2.10
1.89
1.57
1.21
0.83
0.42
-0.01
-0.42
-0.77
-0.99
-1.05
-1.00
-0.98
-1.14
-1.60
-2.32
-3.18
-3.94
-4.43
-4.57
-4.41
-4.17
-4.04
-4.25
-4.84
-5.75
-6.72
-7.48
-7.81
-7.67
-7.21
-6.60
-6.01
-5.41
-4.68
-3.66
-2.30
-0.74
0.80
2.06
2.90
3.23
3.10
2.59
1.90
1.20
0.69
0.40
0.25
-0.01
-0.59
-1.55
-2.70
-3.63
-3.88
-3.06
-1.03
2.09
5.94
9.93
13.40
15.75
16.64
16.04
14.29
11.85
9.21
6.67
4.38
2.36
0.64
-0.77
-1.85
-2.57
-2.99
-3.14
-3.10
-2.93
-2.74
-2.71
-2.97
-3.59
-4.51
-5.56
-6.55
-7.34
-7.90
-8.17
-8.09
-7.60
-6.67
-5.37
-3.91
-2.46
-1.14
0.03
1.15
2.28
3.44
4.55
5.51
6.23
6.75
7.16
7.51
7.81
7.99
8.01
7.85
7.57
7.25
6.95
6.67
6.34
5.97
5.55
5.13
4.80
4.53
4.22
3.80
3.26
2.67
2.29
2.29
2.65
3.22
3.75
3.97
3.78
3.24
2.49
1.68
0.86
