1673251115.00
64.000000
-0.00
-0.00
-0.00
-0.00
-0.00
-0.00
-0.00
-0.00
-0.00
-0.00
0.00
0.01
0.01
-0.00
-0.03
-0.05
-0.05
0.00
0.13
0.36
0.66
1.01
1.37
1.72
2.06
2.40
2.79
3.24
3.80
4.42
5.06
5.66
6.20
6.68
7.15
7.68
8.31
9.14
10.09
11.04
11.88
12.56
13.14
13.76
14.65
15.96
17.91
20.32
22.90
25.38
27.58
29.57
31.68
34.32
37.81
42.54
48.15
54.10
59.83
64.97
69.58
74.14
79.34
85.71
93.76
103.00
112.62
121.73
129.77
136.75
143.30
150.75
157.77
166.64
177.95
191.79
206.97
220.57
228.25
225.36
208.53
176.87
132.76
80.05
23.07
-34.94
-92.44
-149.16
-205.23
-260.37
-313.74
-363.87
-409.83
-450.91
-486.50
-515.74
-537.23
-549.22
-549.96
-538.37
-514.21
-478.67
-433.88
-382.45
-327.02
-269.84
-212.63
-156.66
-102.95
-52.37
-5.90
35.58
71.43
101.35
125.50
144.38
158.69
169.15
176.37
180.75
182.57
182.07
179.51
175.23
169.65
163.18
156.15
148.81
141.30
133.69
126.01
118.32
110.68
103.17
95.84
88.75
81.90
75.26
68.85
62.67
56.76
51.18
45.97
41.14
36.69
32.56
28.71
25.10
21.71
18.58
15.73
13.21
11.02
9.13
7.46
5.89
4.37
2.87
1.49
0.34
-0.48
-0.94
-1.18
-1.41
-1.88
-2.75
-3.99
-5.37
-6.59
-7.34
-7.53
-7.37
-7.27
-7.68
-8.92
-10.94
-13.33
-15.49
-16.86
-17.24
-16.92
-16.57
-16.99
-18.69
-21.63
-25.19
-28.47
-30.67
-31.45
-31.06
-30.17
-29.62
-30.21
-32.66
-37.50
-44.54
-52.25
-57.54
-56.43
-45.58
-24.04
5.84
39.09
70.08
94.55
110.65
118.60
119.55
114.76
105.45
93.15
79.94
68.02
58.98
53.30
50.52
49.80
50.43
51.61
52.00
49.73
43.12
31.81
17.33
2.68
-9.30
-17.36
-22.25
-25.60
-28.31
-29.83
-28.62
-23.57
-15.46
-7.20
-2.43
-3.63
-10.66
-20.68
-29.68
-34.53
-34.38
-30.77
-26.36
-23.17
-21.60
-20.60
-19.01
-17.15
-16.80
-20.01
-27.19
-36.02
-42.28
-42.11
-34.49
-21.99
-9.48
-1.29
1.11
-0.37
-1.97
-0.83
3.17
7.51
8.92
5.74
-0.70
-6.69
-8.28
-3.48
6.57
18.46
28.62
35.22
38.85
41.49
44.02
45.06
41.44
30.23
11.20
-12.17
-33.88
-47.74
-49.86
-39.92
-21.01
1.64
22.24
36.08
40.61
36.13
25.53
13.18
3.21
-1.96
-2.34
0.30
3.91
7.39
11.01
15.83
22.68
31.50
41.29
50.47
57.46
61.27
61.60
58.83
53.75
47.13
39.50
31.07
21.96
12.57
3.94
-2.48
-5.29
-3.87
1.31
8.73
16.52
23.21
28.37
32.69
37.38
43.50
51.22
59.71
67.53
73.52
77.47
80.29
83.39
87.74
92.98
97.44
99.07
96.74
91.17
84.67
79.89
78.13
78.38
77.73
72.90
62.27
46.99
30.82
18.48
13.62
17.15
26.76
37.77
44.85
43.84
32.93
12.92
-13.75
-44.08
-75.89
-108.36
-141.97
-177.99
-218.18
-264.64
-319.47
-383.68
-455.73
-530.29
-598.36
-649.49
-675.26
-672.56
-644.87
-600.69
-550.01
-500.69
-456.47
-417.11
-380.36
-343.97
-306.84
-269.14
-231.47
-194.24
-157.43
-120.71
-83.81
-46.62
-9.31
28.08
65.98
105.09
145.69
186.48
224.06
253.65
271.14
275.63
270.94
264.96
266.80
282.97
314.51
356.50
400.16
436.22
458.05
463.07
452.49
429.72
398.99
364.33
329.28
296.76
268.93
246.83
229.96
216.30
202.68
185.88
163.82
136.43
105.74
75.17
48.16
26.91
11.71
1.09
-7.27
-15.50
-24.77
-35.12
-45.68
-55.31
-62.94
-67.75
-68.98
-65.76
-57.14
-42.61
-22.72
0.42
23.43
42.63
55.52
61.87
63.85
65.00
68.60
76.23
87.24
99.30
109.36
114.62
112.79
102.21
82.18
53.80
20.99
-9.63
-30.28
-34.76
-20.83
8.98
48.49
90.34
128.19
157.68
176.06
181.27
171.43
145.28
103.57
50.53
-5.59
-53.78
-83.38
-87.94
-68.42
-33.63
2.71
27.67
34.76
26.61
13.32
7.05
15.96
40.58
74.20
106.47
127.91
133.16
121.88
97.78
66.96
36.09
10.74
-5.90
-13.96
-17.08
-21.38
-33.44
-57.73
-94.51
-138.79
-181.02
-210.05
-217.00
-199.27
-162.26
-117.85
-80.32
-61.51
-67.64
-98.42
-148.47
-209.17
-270.02
-319.35
-345.56
-339.79
-299.08
-228.68
-141.30
-53.22
20.82
71.61
96.13
95.85
74.51
37.29
-8.74
-54.00
-87.51
-100.12
-88.15
-55.34
-11.60
30.63
60.93
73.74
68.60
48.81
19.80
-12.15
-40.85
-61.17
-70.39
-69.33
-62.76
-58.36
-64.30
-86.51
-126.21
-179.12
-236.75
-289.15
-328.24
-350.08
-355.28
-347.53
-330.96
-307.98
-278.77
-242.31
-198.14
-147.45
-93.08
-38.63
11.99
54.27
82.59
91.02
75.55
37.26
-15.74
-69.46
-108.59
-122.33
-108.66
-74.80
-33.81
1.00
20.74
23.02
10.99
-9.37
-31.76
-50.96
-62.95
-64.59
-53.74
-30.11
4.04
43.93
83.67
118.26
145.48
166.47
184.72
204.19
227.37
254.29
282.76
309.72
332.55
349.88
361.56
368.20
370.53
368.96
363.49
353.91
340.11
322.42
301.86
279.97
258.39
238.31
220.23
204.26
190.89
181.54
178.30
182.90
195.23
212.21
228.19
236.47
231.62
211.44
177.61
134.81
88.86
44.90
5.91
-27.38
-56.10
-82.47
-109.05
-138.22
-171.94
-211.34
-255.94
-302.91
-346.71
-379.48
-392.80
-380.48
-341.53
-281.81
-212.61
-146.36
-91.42
-48.34
-10.78
29.60
76.82
126.80
168.32
188.92
181.79
149.69
103.75
57.88
22.04
-1.47
-16.83
-29.88
-43.37
-55.52
-62.48
-62.12
-56.33
-49.49
-44.53
-39.64
-28.70
-5.34
31.42
74.22
109.62
124.27
111.57
74.56
23.46
-30.25
-79.45
-123.61
-166.88
-214.36
-269.50
-333.09
-403.53
-477.41
-549.49
-612.79
-659.49
-683.01
-680.40
-653.54
-608.48
-553.13
-494.49
-436.90
-381.98
-329.54
-278.86
-229.40
-180.84
-132.82
-84.86
-36.68
11.41
58.48
103.21
144.55
182.46
218.33
254.71
294.00
336.51
379.65
418.31
446.89
462.01
463.70
454.47
437.04
412.36
379.56
337.83
288.81
237.68
192.02
158.95
142.42
142.13
154.47
174.62
198.05
220.78
238.82
248.13
245.68
230.91
206.02
175.06
142.06
109.13
76.11
42.07
7.22
-26.26
-54.70
-74.83
-85.55
-88.24
-86.03
-82.54
-80.67
-81.94
-86.33
-92.29
-97.42
-98.90
-94.57
-84.13
-69.43
-53.50
-38.79
-25.69
-12.90
0.30
13.39
24.76
32.87
37.65
40.81
45.16
53.07
65.06
77.82
87.38
91.55
91.19
89.07
88.05
90.10
96.10
105.83
115.31
119.87
115.92
102.02
78.37
46.20
8.05
-32.44
-71.78
-111.19
-152.90
-197.96
-244.56
-289.33
-329.53
-363.55
-390.85
-389.74
-347.11
-267.33
-172.02
-82.93
-10.46
44.81
86.75
119.91
147.32
167.46
178.76
180.06
172.51
160.09
146.32
133.58
123.42
116.03
108.93
100.02
86.02
65.97
40.86
12.03
-20.16
-50.45
-76.66
-99.41
-119.79
-142.53
-171.08
-206.29
-246.99
-291.51
-339.06
-390.74
-448.19
-486.96
-488.72
-448.09
-374.73
-284.55
-192.31
-109.55
-44.76
-1.53
22.66
30.46
26.11
14.36
-0.26
-14.96
-27.88
-37.92
-43.91
-44.45
-42.38
-41.22
-43.16
-48.08
-53.97
-57.70
-55.63
-48.81
-37.19
-23.37
-10.24
0.25
7.86
13.48
18.48
24.06
30.92
39.86
50.01
60.16
69.61
78.44
87.35
97.08
108.11
120.45
134.34
149.26
164.62
180.10
195.72
211.76
228.70
247.15
267.65
290.73
315.99
341.92
366.12
385.72
398.15
401.74
395.95
381.36
359.31
331.23
298.23
261.07
220.47
177.53
133.88
91.39
51.59
15.31
-17.45
-46.89
-72.75
-93.96
-109.03
-117.15
-119.14
-117.53
-115.62
-115.94
-119.14
-124.01
-128.49
-130.92
-130.91
-129.17
-126.67
-123.95
-120.79
-116.49
-110.39
-102.25
-92.29
-81.09
-69.23
-57.20
-45.32
-33.72
-22.32
-10.90
0.84
13.06
25.56
37.77
48.77
57.48
62.83
64.04
60.74
53.18
42.22
29.24
15.83
3.37
-7.24
-15.67
-21.98
-26.39
-28.97
-29.71
-28.64
-26.01
-22.41
-18.58
-15.17
-12.41
-10.08
-7.67
-4.72
-1.12
2.84
6.64
9.83
12.26
14.13
15.81
17.58
19.44
21.11
22.21
22.45
21.79
20.36
18.37
15.96
13.11
9.71
5.64
0.94
-4.18
-9.24
-13.65
-16.81
-18.24
-17.77
-15.56
-12.11
-8.14
-4.39
-1.40
0.65
1.89
2.70
3.50
4.56
5.91
7.35
8.58
9.31
9.43
8.95
8.00
6.75
5.39
4.16
3.27
2.90
3.12
3.84
4.76
5.49
5.60
4.81
3.06
0.60
-2.10
-4.45
-5.99
-6.49
-6.09
-5.19
-4.32
-3.94
-4.26
-5.27
-6.71
-8.29
-9.74
-10.85
-11.53
-11.76
-11.67
-11.58
-11.91
-13.08
-15.29
-18.40
-21.81
-24.65
-26.06
-25.53
-23.09
-19.29
-14.94
-10.77
-7.21
-4.30
-1.89
0.20
1.97
3.34
4.16
4.46
4.42
4.35
4.50
4.95
5.55
6.00
6.01
5.41
4.24
2.69
1.07
-0.30
-1.18
-1.49
-1.30
-0.86
-0.52
-0.56
-1.20
-2.42
-4.07
-5.88
-7.62
-9.17
-10.53
-11.78
-12.95
-14.02
-14.84
-15.26
-15.27
-15.09
-15.18
-16.03
-17.93
-20.68
-23.55
-25.54
-25.68
-23.56
-19.47
-14.39
-9.58
-6.05
-4.16
-3.50
-3.10
-1.98
0.36
3.52
6.38
7.59
6.31
2.81
-1.43
-4.34
-4.19
-0.50
5.65
12.12
16.75
18.25
16.81
13.91
11.68
12.30
17.60
28.43
44.14
61.96
76.84
82.27
72.25
43.67
-1.59
-56.04
-108.19
-146.07
-161.43
-152.61
-124.35
-85.09
-42.82
-1.60
39.67
85.34
139.12
200.28
261.84
313.42
345.38
352.55
335.84
301.24
257.08
210.85
167.15
126.58
88.68
53.27
20.37
-10.93
-43.16
-80.18
-125.57
-179.89
-240.01
-295.78
-332.82
-339.00
-311.04
-257.17
-194.71
-144.03
-121.26
-134.62
-178.94
-238.30
-292.96
-327.09
-332.77
-310.35
-266.55
-198.79
-117.51
-40.53
17.87
54.53
73.92
82.04
83.56
82.01
80.92
81.74
86.94
96.61
107.28
111.57
101.86
75.37
36.77
-3.29
-33.91
-46.19
-36.42
-5.24
40.42
91.77
142.74
191.05
235.81
273.22
296.87
299.66
277.69
233.05
174.53
115.58
68.92
41.29
30.80
29.39
27.85
20.56
7.24
-8.77
-23.20
-34.04
-42.92
-53.81
-69.92
-91.15
-113.26
-130.27
-138.65
-138.60
-133.80
-129.72
-130.78
-139.03
-153.73
-172.17
-183.71
-180.41
-160.17
-127.73
-91.19
-56.50
-26.19
-0.42
21.19
38.08
47.68
47.41
38.75
26.86
20.17
26.58
50.06
89.30
138.90
191.15
239.99
283.00
316.68
338.57
345.81
335.54
306.68
261.63
205.63
145.52
87.49
35.29
-8.92
-44.04
-69.22
-83.82
-88.65
-87.49
-86.64
-92.82
-110.24
-137.69
-169.01
-195.50
-209.84
-209.38
-197.34
-180.65
-166.34
-158.31
-155.70
-154.13
-148.15
-133.63
-109.41
-77.66
-43.14
-11.86
10.46
20.17
16.25
0.20
-24.91
-56.19
-92.33
-133.96
-182.48
-237.78
-296.14
-350.24
-391.15
-411.66
-409.12
-386.43
-350.64
-309.99
-270.83
-235.55
-203.41
-172.64
-142.45
-113.75
-88.42
-67.74
-51.26
-36.71
-20.32
0.79
27.21
57.25
88.13
117.61
144.85
170.38
195.37
222.23
252.24
284.73
317.78
349.85
380.40
409.32
435.42
455.53
467.24
467.26
451.54
416.66
361.89
290.29
208.66
126.57
54.80
6.29
-10.21
5.88
47.06
101.59
158.07
208.65
249.97
262.37
235.73
175.24
98.68
24.06
-38.37
-85.64
-118.58
-139.68
-152.08
-155.66
-148.99
-134.09
-114.15
-91.89
-69.37
-47.93
-28.50
-11.30
6.78
29.32
58.42
91.08
124.66
156.73
185.09
207.42
220.89
223.89
215.14
193.94
161.65
122.84
84.14
52.02
30.36
19.20
16.00
16.44
15.93
11.16
1.19
-13.12
-30.10
-48.25
-66.79
-85.55
-105.07
-126.31
-150.10
-176.24
-203.38
-229.05
-250.30
-264.67
-271.21
-270.94
-266.52
-261.10
-256.93
-254.74
-253.78
-252.61
-250.09
-245.92
-240.53
-234.46
-227.73
-219.53
-208.53
-193.53
-174.03
-150.67
-125.23
-100.07
-77.43
-58.71
-44.28
-33.67
-26.34
-22.26
-22.08
-26.63
-35.95
-48.36
-60.26
-66.89
-63.73
-48.05
-19.90
17.85
60.37
102.39
139.65
169.77
192.41
208.68
220.27
228.49
233.77
235.57
232.80
224.43
210.09
190.33
166.36
139.65
111.47
82.70
54.06
26.47
1.29
-19.78
-35.22
-44.30
-47.48
-46.32
-42.87
-38.85
-35.03
-31.13
-26.33
-20.10
-12.72
-5.39
0.28
3.01
2.39
-0.99
-5.83
-10.76
-14.71
-17.19
-18.15
-17.83
-16.57
-14.74
-12.70
-10.74
-8.93
-7.02
-4.34
0.09
7.36
18.23
32.97
51.10
71.51
92.45
111.71
126.63
134.33
132.13
118.31
92.89
58.10
18.07
-22.21
-58.37
-87.84
-110.24
-126.91
-139.75
-150.19
-158.58
-164.36
-166.68
-165.12
-160.19
-153.32
-146.41
-141.19
-138.60
-138.41
-139.26
-139.01
-135.28
-125.93
-109.66
-86.23
-56.42
-21.80
15.88
55.38
96.26
138.80
183.41
230.04
277.48
323.15
363.20
392.93
407.57
403.52
379.96
340.08
291.13
242.66
203.17
176.81
161.73
151.16
136.78
112.64
77.58
35.09
-9.04
-49.57
-83.63
-110.81
-132.10
-148.51
-160.46
-168.08
-171.99
-173.71
-175.39
-179.21
-186.34
-196.41
-207.46
-216.61
-220.95
-218.51
-208.79
-192.77
-172.40
-149.97
-127.51
-106.69
-88.88
-75.09
-65.73
-60.13
-56.22
-50.77
-40.41
-23.15
0.51
27.39
52.66
71.61
81.28
81.31
73.55
60.95
46.19
30.86
15.33
-0.66
-17.29
-33.99
-49.36
-61.53
-68.81
-70.37
-66.48
-58.30
-47.21
-33.99
-18.39
0.60
23.78
50.86
80.02
108.24
132.24
149.42
158.35
158.75
151.28
137.45
119.58
100.51
82.96
68.56
57.14
46.93
35.58
21.73
5.90
-9.65
-22.29
-30.47
-34.58
-36.50
-38.44
-41.72
-46.34
-51.50
-56.46
-61.24
-66.55
-73.19
-81.18
-89.47
-96.19
-99.66
-99.33
-96.29
-92.90
-91.64
-93.88
-99.17
-105.43
-109.88
-109.95
-103.84
-90.48
-69.28
-40.27
-4.40
36.11
78.08
118.32
154.54
185.81
212.06
233.11
247.97
254.85
252.04
238.82
215.84
184.65
146.92
103.87
56.44
5.82
-45.99
-96.20
-141.65
-179.42
-207.18
-223.50
-228.06
-221.87
-207.19
-187.02
-163.92
-138.80
-110.38
-75.93
-33.04
18.22
74.21
128.25
172.86
202.56
215.76
214.91
205.00
191.30
177.54
165.07
153.20
140.11
123.94
103.53
78.74
50.48
20.32
-9.94
-38.70
-64.85
-87.79
-107.37
-123.87
-138.21
-151.96
-166.96
-184.43
-203.89
-222.71
-236.78
-242.15
-236.59
-220.25
-195.04
-163.57
-128.24
-91.45
-56.21
-26.20
-4.79
6.91
11.48
14.99
24.68
45.55
77.94
117.25
156.05
187.27
206.59
213.07
208.02
193.40
170.77
141.40
107.03
70.40
34.97
3.87
-21.18
-40.31
-55.06
-67.35
-78.54
-88.96
-97.95
-104.35
-106.73
-103.60
-93.68
-76.34
-52.11
-22.92
8.37
38.91
66.93
92.00
114.52
134.60
151.15
161.80
163.86
155.62
137.43
111.85
82.86
54.63
30.24
10.98
-3.59
-14.99
-24.93
-34.44
-43.44
-50.88
-55.56
-56.89
-55.47
-52.95
-51.33
-52.23
-56.33
-63.52
-73.20
-84.34
-95.14
-102.55
-102.36
-90.36
-64.25
-25.18
21.91
69.74
111.26
142.03
161.12
170.43
172.75
169.97
162.39
149.28
130.19
106.01
79.16
52.88
30.10
12.39
-0.56
-10.82
-21.35
-34.92
-52.76
-74.05
-96.19
-115.88
-130.14
-136.78
-134.57
-123.43
-104.85
-82.08
-59.68
-42.11
-31.95
-28.73
-29.34
-29.79
-27.46
-22.40
-16.84
-13.35
-13.08
-15.23
-18.04
-20.35
-22.13
-23.85
-24.98
-23.23
-15.15
2.00
28.59
61.66
95.57
123.79
141.13
145.36
137.66
121.77
102.57
84.72
71.60
65.09
65.53
71.72
81.10
90.25
95.86
95.85
90.42
82.41
76.69
78.21
89.57
109.22
131.41
148.35
153.67
145.28
126.21
102.80
81.18
64.11
49.75
33.07
9.13
-24.00
-63.98
-105.25
-141.62
-168.64
-184.73
-190.59
-188.10
-179.24
-165.56
-148.49
-129.77
-111.70
-96.59
-85.92
-79.58
-75.86
-72.14
-66.13
-56.85
-44.97
-32.28
-20.74
-11.78
-6.05
-3.72
-4.72
-8.69
-14.80
-21.53
-26.96
-29.43
-28.20
-23.97
-18.58
-14.40
-13.34
-16.24
-22.57
-30.79
-38.83
-44.75
-47.23
-45.78
-40.86
-33.91
-27.10
-22.98
-23.86
-30.98
-43.99
-60.79
-78.14
-92.66
-101.75
-104.04
-99.24
-87.74
-70.39
-48.53
-24.43
-1.44
16.45
25.62
24.01
11.83
-8.58
-33.79
-60.52
-86.62
-111.10
-133.48
-152.68
-166.42
-171.45
-164.58
-144.25
-111.67
-70.82
-27.19
14.05
49.60
78.43
101.06
118.35
130.71
138.36
142.17
144.34
148.06
156.20
169.82
187.61
206.48
222.97
234.34
238.82
235.06
221.80
198.47
166.42
129.91
95.58
70.25
58.20
59.43
69.99
84.26
97.58
107.75
114.73
119.11
120.70
118.24
110.36
96.95
79.81
62.09
46.92
35.97
28.83
23.41
17.05
7.63
-5.62
-21.95
-39.33
-55.02
-66.27
-71.10
-69.10
-61.95
-53.10
-46.69
-46.00
-52.14
-63.82
-78.12
-91.89
-102.88
-110.12
-113.59
-113.67
-110.94
-106.19
-100.53
-95.19
-90.91
-87.47
-83.73
-78.28
-70.43
-60.80
-51.17
-43.77
-40.37
-41.63
-47.00
-54.86
-63.19
-70.16
-74.80
-77.23
-78.48
-79.81
-81.96
-84.76
-87.68
-90.52
-93.92
-98.89
-105.74
-113.03
-117.66
-116.00
-105.73
-87.05
-62.50
-35.69
-9.61
14.34
36.15
56.15
74.03
88.49
97.95
101.57
100.21
96.37
93.42
94.28
100.03
109.24
118.38
123.27
121.10
111.88
98.61
85.97
78.23
77.40
82.79
91.94
102.33
112.74
123.46
135.52
149.26
163.73
176.88
186.77
192.68
195.61
197.62
200.54
204.65
208.13
207.56
199.19
180.52
151.57
115.16
76.14
40.00
11.06
-8.81
-20.64
-27.94
-35.62
-48.47
-69.66
-99.66
-135.98
-173.85
-207.86
-233.75
-249.80
-257.04
-258.17
-255.82
-251.08
-243.19
-230.54
-212.39
-190.27
-168.05
-150.51
-141.07
-139.94
-143.46
-145.39
-139.54
-122.51
-95.38
-63.43
-33.90
-13.06
-3.85
-5.24
-13.41
-23.81
-33.02
-39.53
-43.34
-45.12
-45.53
-45.24
-45.21
-46.78
-51.08
-58.26
-66.68
-73.07
-73.59
-65.43
-48.13
-23.97
2.71
26.98
44.98
54.99
57.62
55.22
50.65
46.30
43.44
42.42
43.15
45.62
50.07
56.62
64.78
73.26
80.21
84.03
84.02
80.67
75.31
69.33
63.51
57.73
51.25
43.31
33.74
23.28
13.35
5.58
1.19
0.63
3.53
8.99
15.96
23.38
30.21
35.31
37.44
35.63
29.64
20.35
9.69
-0.08
-7.33
-11.66
-13.77
-14.47
-13.55
-9.25
1.03
19.34
45.60
77.09
109.22
137.28
158.28
171.85
179.82
184.87
189.01
192.68
194.98
194.60
190.87
184.30
176.23
167.82
158.97
147.83
131.38
106.64
72.25
29.09
-20.09
-72.06
-124.59
-176.98
-229.56
-282.17
-333.19
-379.59
-418.19
-447.26
-467.30
-480.45
-488.82
-492.96
-491.44
-481.74
-461.93
-432.06
-394.39
-352.44
-309.55
-267.76
-227.65
-188.84
-150.79
-113.23
-76.19
-39.50
-2.44
36.00
76.57
118.87
160.95
199.69
231.83
255.19
269.40
275.88
277.00
275.26
272.71
270.87
270.94
273.72
279.41
287.24
295.41
301.59
303.68
300.53
292.18
279.60
264.20
247.48
230.78
215.21
201.50
190.02
180.83
174.03
170.07
169.72
173.34
180.05
187.00
189.64
182.82
162.63
128.19
82.49
31.95
-15.27
-51.70
-72.77
-78.01
-70.92
-57.43
-43.71
-34.28
-31.10
-33.99
-41.71
-53.06
-66.91
-81.85
-95.66
-105.95
-111.49
-113.50
-115.51
-121.60
-134.01
-151.57
-170.14
-185.01
-193.60
-196.93
-198.79
-203.33
-212.59
-225.44
-238.40
-247.79
-251.56
-249.89
-244.42
-236.78
-227.63
-216.58
-202.92
-186.56
-168.45
-150.20
-133.21
-117.91
-103.60
-89.17
-74.11
-59.03
-45.46
-34.93
-27.87
-23.23
-18.79
-12.17
-1.76
12.73
30.39
49.48
68.07
84.51
97.59
106.68
111.73
113.17
111.95
109.38
107.03
106.29
107.87
111.32
114.99
116.72
114.96
109.89
103.67
99.60
100.41
106.69
116.28
125.12
128.82
124.38
110.88
89.31
61.72
30.56
-1.53
-31.67
-56.79
-74.17
-82.37
-81.91
-75.24
-65.88
-57.03
-50.29
-45.23
-40.00
-32.50
-21.62
-7.84
6.98
20.46
30.69
36.73
38.63
36.99
32.56
26.10
18.53
10.96
4.66
0.59
-0.92
-0.32
1.43
3.28
4.51
4.72
3.73
1.31
-2.81
-8.82
-16.61
-25.62
-34.95
-43.53
-50.27
-54.23
-54.64
-51.07
-43.55
-32.68
-19.54
-5.48
8.18
20.36
30.31
37.47
41.52
42.35
40.27
36.04
30.90
26.16
22.84
21.34
21.27
21.83
22.22
22.07
21.64
21.69
23.04
26.16
30.85
36.25
41.15
44.37
45.12
43.10
38.45
31.36
21.91
10.04
-4.26
-20.52
-37.46
-53.10
-65.64
-74.77
-82.36
-91.94
-106.70
-127.19
-149.75
-167.23
-171.55
-156.77
-121.19
-67.34
-0.61
72.18
143.44
204.60
246.57
261.88
247.86
209.06
156.99
106.62
71.04
57.01
63.29
82.10
103.04
117.24
119.83
110.22
90.49
63.45
31.45
-3.62
-39.43
-72.58
-98.84
-114.59
-118.57
-112.69
-101.41
-89.45
-79.71
-72.45
-66.33
-60.38
-55.15
-52.35
-53.38
-58.03
-64.86
-72.78
-82.30
-95.31
-112.96
-133.26
-150.47
-157.15
-147.72
-121.63
-83.87
-42.68
-6.40
18.81
29.38
23.55
0.85
-36.83
-84.04
-131.23
-166.44
-179.15
-164.22
-124.16
-68.28
-8.69
44.43
86.46
118.70
145.84
171.83
196.90
217.07
226.45
220.94
200.85
171.00
138.48
109.35
86.33
68.95
55.23
43.58
33.70
26.05
20.76
17.19
14.26
10.99
7.18
3.32
0.29
-1.10
-0.49
1.83
4.99
7.57
7.90
4.67
-2.70
-13.69
-26.89
-40.53
-53.15
-64.04
-73.21
-81.06
-87.74
-92.92
-95.77
-95.41
-91.50
-84.58
-76.08
-67.73
-60.90
-55.90
-51.87
-47.27
-40.62
-31.33
-19.97
-8.02
2.76
11.08
16.47
19.29
20.40
20.71
20.96
21.66
23.14
25.53
28.64
31.84
34.11
34.56
33.03
30.55
29.21
31.37
38.50
50.34
64.72
78.48
88.73
93.94
94.31
91.25
86.48
81.29
76.24
71.30
66.19
60.64
54.39
47.36
39.60
31.55
23.94
17.58
12.93
9.83
7.61
5.55
3.31
1.14
-0.41
-0.96
-0.57
0.26
0.98
1.33
1.50
1.98
3.11
4.82
6.54
7.47
7.02
5.11
2.19
-0.92
-3.37
-4.59
-4.38
-2.90
-0.52
2.39
5.57
8.96
12.60
16.59
20.93
25.52
30.11
34.32
37.85
40.48
42.23
43.23
43.62
43.27
41.73
38.31
32.38
23.72
12.59
-0.25
-13.85
-27.32
-40.01
-51.45
-61.38
-69.69
-76.37
-81.56
-85.38
-87.79
-88.52
-87.18
-83.50
-77.65
-70.24
-62.16
-54.19
-46.74
-39.79
-33.14
-26.69
-20.66
-15.52
-11.77
-9.78
-9.70
-11.43
-14.74
-19.24
-24.36
-29.38
-33.56
-36.41
-37.86
-38.31
-38.44
-38.94
-40.32
-42.93
-46.92
-52.29
-58.71
-65.52
-71.71
-76.25
-78.40
-78.04
-75.54
-71.20
-64.52
-53.88
-37.00
-11.99
21.55
62.09
106.41
150.57
191.13
225.78
253.43
273.64
286.24
291.64
291.13
286.88
280.99
274.90
268.81
261.73
252.26
239.31
223.00
204.58
185.44
166.05
146.20
125.84
105.74
87.31
71.15
56.57
41.27
21.61
-6.50
-45.37
-93.87
-147.40
-199.41
-244.14
-277.62
-296.66
-297.63
-280.40
-250.55
-217.62
-191.91
-176.54
-171.56
-174.70
-181.96
-187.98
-187.78
-178.40
-159.92
-135.11
-107.66
-80.67
-54.76
-28.56
-1.04
26.03
48.33
61.39
63.49
57.27
48.29
42.88
45.13
54.94
68.40
80.39
87.75
91.03
93.59
99.24
110.40
127.09
147.06
167.05
184.53
198.77
210.78
221.70
231.58
238.70
240.00
232.18
212.82
181.37
139.07
88.78
33.63
-22.45
-74.59
-117.38
-146.31
-159.35
-157.40
-143.88
-123.08
-100.56
-80.95
-67.36
-61.52
-64.44
-77.01
-99.57
-131.57
-170.11
-212.39
-253.21
-285.40
-301.62
-297.87
-275.91
-242.41
-206.32
-173.77
-150.31
-137.45
-134.10
-138.48
-150.24
-170.19
-198.18
-232.28
-248.93
-230.65
-172.94
-88.99
-0.11
76.60
134.07
173.55
196.16
209.92
215.05
209.16
189.93
157.53
113.35
59.52
6.84
-36.16
-62.37
-74.37
-78.19
-80.36
-84.14
-90.56
-97.23
-100.29
-103.15
-101.86
-97.90
-93.39
-91.35
-93.68
-103.47
-121.05
-144.41
-170.59
-188.71
-192.62
-176.75
-139.87
-85.01
-21.59
41.82
99.64
150.04
195.98
240.33
288.19
333.14
381.68
424.89
454.21
463.54
450.75
418.97
360.31
280.09
193.37
117.68
59.85
18.61
-10.55
-30.93
-43.50
-49.36
-48.50
-43.90
-39.59
-41.51
-53.21
-75.20
-105.11
-138.55
-169.98
-191.53
-197.16
-184.24
-150.75
-100.67
-41.72
17.09
67.95
105.88
130.10
141.22
140.21
127.69
105.52
78.65
54.26
39.02
35.91
42.81
53.09
59.30
57.67
50.24
44.11
46.64
60.48
81.74
102.34
114.66
115.31
106.27
92.23
77.63
64.92
55.66
53.08
63.18
92.65
144.18
212.54
284.05
341.15
369.44
363.47
328.19
275.73
219.41
168.37
125.34
88.17
53.23
18.40
-15.87
-47.75
-76.32
-103.07
-131.53
-164.91
-203.93
-246.10
-287.14
-323.42
-353.61
-378.35
-398.25
-412.40
-418.53
-414.87
-402.68
-387.17
-376.27
-377.35
-394.01
-424.29
-461.43
-496.27
-520.08
-526.84
-514.16
-483.33
-438.72
-386.34
-332.04
-280.24
-233.16
-191.18
-153.53
-118.80
-84.96
-49.31
-8.94
38.09
90.80
144.59
191.77
223.88
235.18
225.14
199.00
165.81
134.79
111.64
96.75
85.88
72.96
53.35
26.25
-4.92
-34.22
-55.64
-65.43
-63.09
-50.73
-31.42
-7.47
19.83
48.91
76.35
96.72
104.38
96.66
76.20
50.93
31.19
25.82
38.50
67.19
106.43
150.80
196.79
242.25
284.15
316.95
333.94
329.10
300.72
254.13
200.77
153.67
121.33
103.59
92.54
79.72
60.35
36.64
16.96
11.38
26.04
59.89
105.77
154.69
202.63
247.93
287.88
316.46
325.46
308.45
265.43
205.74
146.73
110.95
113.43
154.08
217.87
282.48
328.23
344.96
334.00
284.13
199.80
99.51
5.76
-68.70
-123.53
-163.30
-191.45
-209.12
-217.05
-215.21
-206.41
-196.72
-192.91
-198.71
-213.37
-233.31
-255.10
-273.40
-282.83
-279.72
-262.17
-229.37
-181.51
-121.59
-57.43
-0.99
35.61
46.30
32.61
2.24
-34.48
-68.20
-92.84
-105.76
-106.09
-93.50
-68.39
-33.96
2.59
32.39
49.34
54.02
53.83
58.99
76.83
107.42
143.24
172.53
184.67
174.19
141.67
91.23
27.40
-46.42
-127.26
-210.72
-290.13
-357.60
-406.56
-433.99
-441.05
-431.91
-411.39
-383.24
-349.54
-311.37
-269.71
-225.93
-181.37
-136.70
-91.81
-46.65
-2.46
37.36
67.72
83.71
83.01
67.45
43.04
18.18
0.64
-5.21
0.54
14.36
31.53
48.72
65.29
82.96
104.22
131.20
165.15
206.78
256.43
313.48
375.22
436.25
489.12
526.48
543.45
539.12
516.15
478.98
431.95
378.73
323.19
270.52
227.22
199.49
190.52
198.33
215.81
232.86
239.62
229.43
200.32
155.10
99.90
42.12
-11.74
-57.86
-95.79
-128.11
-159.03
-192.45
-230.84
-275.27
-326.40
-385.10
-451.83
-524.75
-597.96
-661.58
-704.42
-718.23
-701.31
-659.36
-602.95
-543.01
-486.98
-437.12
-391.72
-347.91
-304.06
-260.48
-218.60
-179.52
-143.06
-108.04
-73.17
-38.00
-3.19
29.76
59.34
84.72
105.84
123.03
136.43
145.95
151.56
153.73
153.51
152.01
149.75
146.10
139.79
129.92
117.08
103.64
92.95
87.92
89.88
98.60
113.00
132.19
155.66
182.83
212.29
241.52
267.73
289.27
307.06
324.20
344.76
371.11
402.32
434.05
459.90
473.72
471.45
452.51
418.59
373.28
320.60
265.18
212.34
167.43
134.38
113.99
104.88
103.09
105.49
109.97
115.64
121.29
123.73
117.60
96.64
58.33
3.21
-63.61
-136.23
-210.56
-285.35
-361.63
-440.69
-523.18
-606.67
-690.55
-763.78
-814.60
-836.65
-832.28
-808.17
-768.13
-725.19
-674.76
-614.59
-547.12
-479.21
-417.70
-364.28
-319.06
-278.87
-239.71
-196.75
-149.15
-97.54
-43.93
9.58
61.46
110.58
156.44
198.38
236.84
270.70
299.40
322.69
341.11
356.08
369.57
383.75
399.54
416.68
431.84
440.69
439.56
427.27
406.22
381.73
360.67
348.95
350.04
363.35
385.61
412.16
438.22
459.62
472.80
475.32
466.51
447.54
420.68
389.10
355.58
321.33
285.87
247.49
205.53
162.67
124.24
96.35
84.23
90.05
111.76
143.61
177.08
203.49
216.76
213.35
191.61
152.87
100.65
39.77
-24.63
-88.82
-150.16
-206.06
-255.20
-298.24
-335.70
-367.81
-394.51
-409.23
-404.62
-389.68
-373.35
-357.19
-344.95
-340.07
-345.04
-360.98
-387.47
-423.62
-456.31
-472.69
-466.26
-440.46
-403.92
-365.17
-329.93
-301.09
-280.09
-266.24
-256.42
-245.34
-227.51
-198.36
-156.99
-107.46
-57.54
-15.70
13.03
28.03
32.53
30.86
27.14
24.07
22.86
23.98
27.53
33.79
41.91
50.12
56.16
58.78
58.03
55.23
52.03
49.41
47.62
45.34
40.72
32.63
21.76
10.73
3.21
2.59
7.00
14.28
21.02
24.11
22.25
16.68
10.77
9.04
15.61
32.92
61.16
96.75
132.04
156.52
159.51
134.43
82.42
13.58
-55.64
-107.76
-131.61
-126.47
-101.63
-71.46
-48.45
-38.08
-37.59
-38.98
-33.53
-16.09
13.66
52.53
96.04
140.25
182.24
219.42
249.14
268.92
277.06
273.84
261.77
244.96
227.78
213.43
203.20
196.33
190.79
184.20
174.81
162.10
146.81
130.56
115.13
101.86
91.42
83.98
79.46
77.77
78.64
81.47
85.21
88.62
90.79
91.70
92.29
94.09
98.40
105.55
114.78
124.67
133.93
141.91
148.78
155.12
161.66
168.96
177.31
186.31
194.35
198.17
193.14
174.41
138.75
85.95
19.27
-55.69
-133.06
-208.51
-280.24
-348.87
-416.45
-485.11
-555.50
-625.47
-689.66
-740.30
-769.42
-771.64
-746.35
-698.10
-634.74
-564.50
-493.33
-423.97
-356.67
-290.88
-226.34
-163.13
-100.95
-38.86
24.25
88.25
150.85
207.66
253.65
284.88
300.14
301.13
291.62
275.99
257.96
240.02
223.49
208.85
195.98
184.33
173.04
161.15
147.94
133.21
117.29
100.78
84.32
68.29
52.96
38.51
25.28
13.74
4.31
-2.93
-8.37
-12.78
-16.94
-21.18
-25.07
-27.51
-27.16
-23.09
-15.33
-4.95
6.26
16.40
24.12
28.76
30.34
29.22
25.87
20.85
14.98
9.28
4.84
2.44
2.24
3.76
6.24
9.19
12.73
17.61
24.71
34.49
46.48
59.34
71.25
80.62
86.67
89.58
90.29
90.02
89.69
89.66
89.76
89.70
89.53
90.03
92.63
99.02
110.49
127.37
148.74
172.61
196.36
217.25
232.80
241.16
241.31
233.35
218.50
198.79
176.32
152.45
127.30
99.94
69.19
34.49
-3.78
-44.56
-86.91
-130.77
-177.14
-227.50
-282.98
-343.41
-406.83
-469.47
-526.12
-571.10
-599.22
-607.14
-594.18
-562.48
-516.24
-460.37
-398.98
-334.49
-268.07
-200.97
-136.11
-78.30
-32.67
-1.76
16.83
30.48
48.80
79.08
122.67
174.30
224.71
265.04
290.47
301.13
300.25
291.39
276.56
256.25
230.89
202.22
173.36
147.58
126.91
111.19
98.40
85.89
71.90
56.39
41.14
28.85
21.97
21.57
26.80
35.28
43.96
50.32
53.04
52.20
48.69
43.60
37.63
30.97
23.47
14.87
5.02
-5.98
-17.65
-28.98
-38.50
-44.55
-45.96
-42.56
-35.59
-27.38
-20.60
-17.24
-17.88
-21.47
-25.77
-28.25
-26.95
-21.06
-11.14
1.25
13.98
25.05
33.05
37.47
38.65
37.41
34.61
30.74
25.78
19.44
11.58
2.55
-6.59
-14.35
-19.35
-21.02
-19.95
-17.99
-17.65
-21.30
-30.17
-43.62
-58.89
-71.60
-76.86
-70.93
-52.44
-22.99
13.34
51.46
86.78
116.34
138.78
153.75
160.93
159.56
148.67
127.83
97.97
61.87
24.24
-8.91
-31.29
-38.39
-29.40
-8.59
14.94
29.59
25.11
-3.34
-52.63
-112.08
-166.77
-202.79
-212.15
-195.58
-161.85
-124.40
-96.62
-87.76
-100.61
-131.39
-171.42
-209.74
-236.02
-242.75
-226.54
-188.37
-133.00
-67.49
0.52
64.31
119.03
161.83
191.85
209.76
217.49
217.70
213.11
205.77
196.46
184.79
169.83
151.06
128.90
104.90
81.32
60.32
43.31
30.51
21.14
13.98
8.10
3.35
0.32
-0.28
1.56
4.74
7.18
6.67
1.83
-7.32
-19.43
-32.52
-44.65
-54.49
-61.22
-64.38
-63.65
-59.04
-51.13
-41.26
-31.29
-23.14
-18.20
-16.97
-19.14
-23.80
-29.84
-36.21
-42.04
-46.72
-49.88
-51.36
-51.09
-49.12
-45.55
-40.63
-34.84
-28.89
-23.59
-19.61
-17.22
-16.13
-15.54
-14.51
-12.24
-8.46
-3.43
2.11
7.32
11.50
14.37
16.02
16.80
17.11
17.21
17.17
16.90
16.19
14.78
12.35
8.60
3.44
-2.79
-9.27
-14.81
-18.20
-18.72
-16.43
-12.10
-6.96
-2.12
1.73
4.39
6.03
6.89
7.13
6.84
6.11
5.13
4.19
3.65
3.74
4.46
5.60
6.68
7.20
6.76
5.22
2.75
-0.25
-3.34
-6.20
-8.73
-11.01
-13.15
-15.16
-16.95
-18.34
-19.24
-19.65
-19.62
-19.12
-17.98
-15.86
-12.54
-8.04
-2.79
2.47
7.00
10.30
12.33
13.37
13.85
13.99
13.74
12.84
11.08
8.58
5.82
3.49
2.11
1.81
2.19
2.58
2.40
1.44
0.04
-1.21
-1.70
-1.19
0.10
1.58
2.60
2.62
1.44
-0.77
-3.59
-6.41
-8.58
-9.54
-8.96
-6.84
-3.55
0.29
4.03
7.22
9.70
11.52
12.71
13.16
12.52
10.49
6.99
2.41
-2.53
-6.99
-10.29
-12.24
-13.04
-13.15
-13.03
-12.99
-13.09
-13.28
-13.33
-12.96
-11.88
-9.87
-7.01
-3.67
-0.52
1.73
2.62
2.18
0.95
-0.22
-0.46
0.76
3.48
7.33
11.67
15.84
19.30
21.73
23.02
23.20
22.41
20.74
18.28
15.08
11.23
6.95
2.62
-1.32
-4.40
-6.33
-7.06
-6.75
-5.75
-4.39
-2.91
-1.48
-0.23
0.72
1.28
1.44
1.29
1.05
0.82
0.60
0.10
-1.09
-3.37
-6.86
-11.26
-15.81
-19.51
-21.34
-20.62
-17.15
-11.25
-3.68
4.60
12.65
19.74
25.40
29.42
31.73
32.41
31.55
29.26
25.76
21.33
16.43
11.56
7.20
3.67
1.05
-0.86
-2.40
-3.96
-5.78
-7.90
-10.20
-12.50
-14.65
-16.63
-18.49
-20.34
-22.27
-24.27
-26.23
-27.87
-28.77
-28.52
-26.77
-23.47
-18.86
-13.47
-7.97
-2.96
1.16
4.25
6.31
7.40
7.55
6.79
5.19
3.00
0.60
-1.50
-2.84
-3.12
-2.29
-0.57
1.64
3.85
5.63
6.69
6.94
6.43
5.31
3.73
1.81
-0.37
-2.73
-5.21
-7.73
-10.24
-12.66
-14.88
-16.66
-17.68
-17.59
-16.13
-13.25
-9.19
-4.46
0.26
4.33
7.28
8.93
9.37
8.89
7.83
6.54
5.34
4.54
4.46
5.25
6.90
9.09
11.26
12.81
13.35
12.84
11.58
10.07
8.75
7.88
7.43
7.22
6.99
6.48
5.50
3.88
1.52
-1.48
-4.80
-7.79
-9.67
-9.75
-7.71
-3.78
1.35
6.74
11.56
15.30
17.87
19.40
20.10
20.08
19.36
17.96
16.00
13.73
11.48
9.56
8.19
7.47
7.33
7.60
8.01
8.23
7.95
6.97
5.32
3.18
0.85
-1.39
-3.41
-5.28
-7.23
-9.48
-12.20
-15.40
-18.91
-22.44
-25.55
-27.73
-28.45
-27.32
-24.20
-19.36
-13.40
-7.14
-1.36
3.44
7.10
9.71
11.47
12.51
12.86
12.48
11.40
9.78
8.00
6.47
5.59
5.57
6.35
7.66
9.10
10.32
11.08
11.34
11.13
10.51
9.49
8.02
6.04
3.65
1.00
-1.68
-4.24
-6.71
-9.26
-12.12
-15.34
-18.67
-21.57
-23.30
-23.20
-20.95
-16.73
-11.13
-5.02
0.73
5.50
9.02
11.30
12.52
12.81
12.28
11.03
9.28
7.40
5.79
4.83
4.62
5.00
5.63
6.12
6.27
6.06
5.62
5.09
4.52
3.88
3.08
2.08
0.91
-0.36
-1.70
-3.10
-4.63
-6.37
-8.36
-10.61
-13.09
-15.79
-18.68
-21.66
-24.49
-26.79
-28.11
-28.06
-26.43
-23.18
-18.41
-12.28
-5.07
2.72
10.35
16.83
21.23
22.95
21.98
18.88
14.60
10.23
6.69
4.65
4.43
6.04
9.11
13.01
16.94
20.18
22.28
23.19
23.12
22.41
21.32
19.95
18.29
16.39
14.42
12.71
11.59
11.28
11.72
12.54
13.20
13.13
11.98
9.71
6.60
3.21
0.20
-1.78
-2.27
-1.09
1.60
5.33
9.43
13.22
16.17
18.05
18.88
18.86
18.20
17.04
15.43
13.41
11.10
8.73
6.61
5.01
4.08
3.73
3.73
3.80
3.70
3.37
2.87
2.27
1.62
0.86
-0.11
-1.36
-2.87
-4.48
-5.99
-7.28
-8.32
-9.20
-10.06
-11.01
-12.07
-13.22
-14.37
-15.34
-15.89
-15.67
-14.34
-11.70
-7.76
-2.87
2.44
7.57
11.99
15.40
17.75
19.15
19.78
19.75
19.12
17.88
16.04
13.69
11.00
8.21
5.57
3.35
1.72
0.78
0.46
0.57
0.82
0.91
0.66
0.05
-0.69
-1.33
-1.69
-1.78
-1.76
-1.85
-2.14
-2.58
-3.04
-3.39
-3.66
-3.98
-4.59
-5.63
-7.07
-8.67
-10.03
-10.73
-10.46
-9.13
-6.87
-3.97
-0.74
2.51
5.49
7.92
9.56
10.23
9.95
8.92
7.49
6.04
4.79
3.80
3.00
2.34
1.82
1.51
1.51
1.79
2.24
2.70
3.08
3.37
3.61
3.80
3.84
3.53
2.65
1.15
-0.82
-2.92
-4.77
-6.08
-6.77
-7.03
-7.18
-7.61
-8.54
-9.97
-11.69
-13.36
-14.59
-15.08
-14.65
-13.23
-10.88
-7.76
-4.19
-0.61
2.51
4.75
5.93
6.09
5.52
4.60
3.65
2.89
2.34
1.96
1.65
1.37
1.13
0.99
0.96
0.97
0.85
0.41
-0.45
-1.70
-3.14
-4.55
-5.73
-6.66
-7.42
-8.13
-8.85
-9.52
-10.04
-10.37
-10.58
-10.91
-11.59
-12.73
-14.19
-15.60
-16.44
-16.25
-14.78
-12.14
-8.69
-4.97
-1.50
1.39
3.53
4.94
5.66
5.73
5.17
3.99
2.35
0.52
-1.18
-2.45
-3.17
-3.42
-3.43
-3.43
-3.53
-3.69
-3.76
-3.63
-3.35
-3.10
-3.14
-3.64
-4.60
-5.79
-6.93
-7.79
-8.34
-8.76
-9.33
-10.32
-11.85
-13.79
-15.90
-17.75
-18.97
-19.20
-18.24
-16.04
-12.82
-9.00
-5.15
-1.82
0.59
1.93
2.31
1.95
1.14
0.11
-0.98
-1.97
-2.77
-3.31
-3.57
-3.57
-3.41
-3.15
-2.90
-2.75
-2.85
-3.30
-4.17
-5.35
-6.63
-7.70
-8.37
-8.58
-8.47
-8.28
-8.28
-8.64
-9.40
-10.47
-11.61
-12.46
-12.62
-11.75
-9.65
-6.38
-2.26
2.21
6.47
10.00
12.50
13.86
14.18
13.65
12.54
11.03
9.29
7.40
5.48
3.65
2.07
0.88
0.11
-0.32
-0.60
-0.90
-1.36
-1.99
-2.66
-3.25
-3.63
-3.81
-3.86
-3.97
-4.30
-5.00
-6.11
-7.66
-9.63
-11.95
-14.39
-16.60
-18.06
-18.21
-16.72
-13.58
-9.17
-4.18
0.66
4.81
7.97
10.13
11.39
11.90
11.75
11.00
9.80
8.33
6.85
5.59
4.75
4.36
4.38
4.65
4.96
5.13
4.99
4.54
3.88
3.23
2.85
2.83
3.05
3.14
2.58
0.86
-2.25
-6.66
-11.96
-17.49
-22.52
-26.33
-28.31
-28.04
-25.37
-20.51
-14.08
-6.94
-0.07
5.71
9.91
12.42
13.40
13.15
11.97
10.14
7.91
5.51
3.24
1.37
0.14
-0.34
-0.10
0.66
1.64
2.56
3.18
3.36
3.03
2.14
0.60
-1.64
-4.55
-7.94
-11.52
-14.99
-18.15
-20.96
-23.48
-25.75
-27.69
-29.02
-29.32
-28.22
-25.50
-21.20
-15.65
-9.36
-2.91
3.16
8.46
12.74
15.86
17.76
18.47
18.05
16.66
14.56
12.08
9.63
7.56
6.14
5.41
5.19
5.17
5.03
4.59
3.88
3.12
2.55
2.26
2.16
1.97
1.41
0.27
-1.50
-3.89
-6.86
-10.33
-14.09
-17.72
-20.58
-22.03
-21.61
-19.27
-15.37
-10.56
-5.54
-0.83
3.20
6.40
8.68
9.99
10.28
9.57
7.96
5.64
2.85
-0.11
-2.90
-5.20
-6.76
-7.50
-7.51
-7.12
-6.70
-6.59
-6.96
-7.76
-8.79
-9.85
-10.79
-11.64
-12.51
-13.65
-15.31
-17.62
-20.54
-23.71
-26.49
-28.05
-27.61
-24.67
-19.25
-11.86
-3.36
5.27
13.19
19.85
24.96
28.35
29.98
29.88
28.26
25.46
22.01
18.51
15.49
13.29
12.03
11.60
11.77
12.23
12.74
13.06
13.03
12.54
11.53
10.04
8.14
5.96
3.60
1.10
-1.56
-4.47
-7.72
-11.39
-15.39
-19.39
-22.84
-24.95
-24.93
-22.23
-16.75
-8.98
0.16
9.54
18.11
25.10
30.05
32.74
33.20
31.63
28.54
24.64
20.83
17.91
16.34
16.14
16.88
17.98
18.91
19.39
19.40
19.07
18.46
17.55
16.21
14.33
11.94
9.20
6.38
3.69
1.22
-1.14
-3.61
-6.47
-9.89
-13.86
-18.08
-21.94
-24.63
-25.32
-23.47
-18.98
-12.30
-4.26
4.14
12.00
18.66
23.77
27.13
28.68
28.44
26.65
23.75
20.37
17.19
14.70
13.11
12.29
11.87
11.52
11.01
10.34
9.66
9.12
8.80
8.57
8.21
7.46
6.16
4.30
2.05
-0.35
-2.67
-4.76
-6.65
-8.48
-10.52
-13.05
-16.18
-19.70
-23.04
-25.29
-25.52
-23.03
-17.70
-10.01
-0.99
8.19
16.44
23.04
27.64
30.21
30.96
30.25
28.57
26.45
24.39
22.67
21.32
20.21
19.10
17.86
16.54
15.37
14.53
14.11
13.91
13.62
12.90
11.52
9.54
7.21
4.88
2.80
1.11
-0.30
-1.64
-3.15
-5.08
-7.54
-10.61
-14.19
-18.02
-21.58
-24.14
-24.88
-23.17
-18.86
-12.39
-4.70
3.06
9.93
15.36
19.19
21.54
22.55
22.32
20.97
18.76
16.15
13.71
11.93
10.97
10.67
10.62
10.41
9.79
8.76
7.53
6.36
5.41
4.65
3.90
2.86
1.30
-0.88
-3.55
-6.39
-9.02
-11.17
-12.80
-14.15
-15.65
-17.69
-20.50
-23.99
-27.81
-31.38
-34.03
-35.17
-34.33
-31.36
-26.42
-20.07
-13.22
-6.87
-1.91
1.17
2.41
2.39
1.89
1.60
1.88
2.68
3.69
4.62
5.33
5.96
6.72
7.72
8.83
9.67
9.76
8.84
6.93
4.40
1.78
-0.44
-1.99
-2.89
-3.36
-3.62
-3.86
-4.10
-4.29
-4.43
-4.58
-4.90
-5.57
-6.77
-8.58
-11.07
-14.21
-17.86
-21.72
-25.24
-27.78
-28.65
-27.37
-23.81
-18.24
-11.26
-3.66
3.75
10.35
15.76
19.88
22.81
24.74
25.87
26.38
26.44
26.25
26.07
26.12
26.49
27.08
27.59
27.71
27.24
26.26
25.03
23.85
22.85
21.90
20.71
18.96
16.45
13.22
9.52
5.66
1.93
-1.49
-4.58
-7.39
-10.05
-12.70
-15.46
-18.49
-21.89
-25.68
-29.68
-33.46
-36.35
-37.59
-36.61
-33.24
-27.87
-21.27
-14.39
-8.04
-2.71
1.38
4.22
5.80
6.21
5.56
4.12
2.34
0.76
-0.14
-0.06
1.13
3.30
6.18
9.43
12.63
15.39
17.35
18.28
18.09
16.88
14.95
12.66
10.29
7.95
5.59
3.03
0.17
-2.92
-6.04
-8.92
-11.35
-13.30
-14.89
-16.27
-17.57
-18.71
-19.45
-19.39
-18.12
-15.39
-11.18
-5.86
0.00
5.71
10.67
14.57
17.28
18.81
19.20
18.51
16.84
14.46
11.78
9.31
7.47
6.43
6.13
6.29
6.61
6.85
6.91
6.80
6.58
6.26
5.83
5.27
4.56
3.73
2.81
1.82
0.76
-0.37
-1.48
-2.45
-3.15
-3.57
-3.88
-4.46
-5.71
-7.88
-10.81
-13.96
-16.59
-17.90
-17.40
-14.90
-10.55
-4.76
1.90
8.80
15.19
20.30
23.45
24.16
22.34
18.38
13.05
7.36
2.25
-1.63
-4.12
-5.44
-6.13
-6.71
-7.61
-8.98
-10.73
-12.58
-14.14
-14.97
-14.72
-13.22
-10.59
-7.25
-3.82
-0.88
1.14
2.09
2.03
1.08
-0.65
-3.07
-6.04
-9.25
-12.21
-14.32
-15.09
-14.26
-11.94
-8.46
-4.29
0.20
4.72
9.06
13.05
16.46
19.04
20.60
21.06
20.45
18.86
16.39
13.18
9.46
5.55
1.87
-1.20
-3.43
-4.83
-5.65
-6.29
-7.20
-8.73
-11.15
-14.53
-18.81
-23.76
-29.03
-34.20
-38.92
-42.96
-46.23
-48.83
-50.95
-52.86
-54.73
-56.57
-58.05
-58.59
-57.39
-53.81
-47.59
-39.00
-28.79
-17.87
-6.98
3.49
13.44
22.84
31.50
38.95
44.70
48.49
50.60
51.81
53.26
55.94
60.39
66.49
73.55
80.64
86.86
91.70
95.03
97.10
98.26
98.78
98.63
97.45
94.69
89.78
82.47
72.96
62.05
50.99
41.22
34.09
30.52
30.72
33.92
38.33
41.49
41.05
35.67
25.75
13.39
1.67
-6.68
-10.33
-9.91
-7.44
-5.35
-5.34
-7.86
-12.30
-17.66
-23.19
-28.67
-34.26
-40.05
-45.83
-51.07
-55.16
-57.83
-59.36
-60.50
-62.08
-64.58
-67.91
-71.53
-74.79
-77.37
-79.50
-81.93
-85.65
-91.45
-99.58
-109.43
-119.46
-127.49
-131.36
-129.66
-122.36
-110.97
-97.91
-85.59
-75.44
-67.49
-60.75
-54.03
-46.75
-39.24
-32.46
-27.37
-24.39
-23.27
-23.43
-24.29
-25.56
-27.19
-29.15
-31.22
-32.86
-33.33
-31.90
-27.89
-20.80
-10.25
3.89
21.43
41.60
63.03
83.87
102.13
116.20
125.25
129.41
129.61
127.27
123.87
120.67
118.57
118.02
119.06
121.30
123.91
125.82
125.95
123.57
118.60
111.60
103.60
95.69
88.60
82.48
76.91
71.19
64.65
56.98
48.30
38.99
29.60
20.57
12.24
4.82
-1.47
-6.34
-9.50
-10.62
-9.63
-6.82
-3.01
0.57
2.59
2.12
-1.00
-6.15
-12.31
-18.62
-24.80
-31.04
-37.46
-43.57
-48.03
-49.02
-45.17
-36.32
-23.81
-10.18
1.70
9.28
10.72
5.00
-7.89
-26.59
-47.93
-67.11
-78.77
-78.71
-65.74
-42.38
-14.04
13.04
33.97
46.56
51.11
49.28
42.78
32.64
19.19
2.71
-16.25
-36.68
-57.40
-77.15
-94.66
-108.54
-117.38
-120.04
-116.10
-106.24
-92.12
-76.03
-60.28
-46.73
-36.45
-29.61
-25.61
-23.23
-21.03
-17.66
-12.39
-5.34
2.36
8.82
12.02
10.49
3.89
-6.82
-19.73
-32.65
-43.92
-52.88
-59.92
-66.02
-72.13
-78.69
-85.37
-91.29
-95.48
-97.32
-96.87
-94.81
-92.23
-90.31
-90.04
-92.00
-96.05
-100.99
-104.44
-103.23
-94.39
-76.53
-51.02
-22.05
4.50
23.32
31.80
31.06
25.25
19.54
17.80
21.14
27.91
34.86
38.89
38.36
33.66
26.97
21.55
20.65
26.57
39.89
59.20
81.55
103.31
121.31
133.76
140.48
142.59
141.72
139.26
135.72
130.45
121.64
106.96
84.58
54.43
19.12
-16.14
-44.79
-61.08
-62.00
-48.15
-23.27
7.31
38.40
66.14
88.28
104.04
113.74
118.58
120.21
120.21
119.44
117.53
112.93
103.63
88.13
66.33
39.89
11.82
-14.31
-35.28
-48.88
-54.18
-51.49
-42.10
-28.15
-12.44
1.89
11.87
15.40
11.79
2.13
-11.00
-24.45
-35.55
-42.99
-46.98
-48.82
-50.00
-51.51
-53.43
-55.23
-56.31
-56.35
-55.60
-54.59
-53.78
-53.23
-52.59
-51.32
-49.15
-46.22
-43.09
-40.55
-39.30
-39.78
-42.12
-46.15
-51.42
-57.29
-63.04
-68.09
-72.21
-75.60
-78.70
-82.00
-85.72
-89.79
-93.86
-97.41
-99.81
-100.33
-98.27
-93.27
-85.54
-76.00
-65.93
-56.43
-47.84
-39.53
-30.23
-18.62
-4.07
13.13
31.97
51.02
68.71
83.25
92.72
95.22
89.57
75.99
56.44
34.18
12.69
-5.53
-19.63
-30.16
-38.17
-44.23
-47.94
-48.18
-43.95
-35.21
-23.22
-10.09
1.88
11.03
16.72
19.35
20.15
21.09
24.80
34.26
52.13
79.62
115.53
155.92
194.93
226.62
247.03
255.51
254.52
248.04
239.36
229.65
217.85
202.00
180.96
155.38
127.37
99.32
72.54
46.87
21.26
-5.03
-31.83
-58.26
-83.63
-108.14
-132.64
-157.47
-181.39
-201.38
-213.76
-215.85
-207.24
-189.85
-166.86
-141.33
-115.43
-90.41
-67.08
-46.02
-27.22
-9.47
9.75
33.44
63.50
99.18
136.73
170.37
194.41
205.44
203.37
190.96
172.28
150.81
128.38
105.33
81.47
57.05
33.02
10.42
-10.45
-30.50
-51.34
-74.13
-98.57
-122.64
-143.37
-158.04
-165.30
-165.40
-159.60
-149.29
-135.43
-118.67
-100.01
-81.54
-66.41
-57.82
-57.30
-63.36
-71.39
-75.12
-69.30
-52.23
-26.71
0.96
23.74
36.73
38.87
32.67
22.46
12.12
3.62
-3.25
-10.06
-18.59
-29.79
-43.48
-58.36
-72.50
-84.01
-91.53
-94.54
-93.13
-87.82
-79.19
-67.97
-55.26
-42.54
-31.27
-21.81
-12.56
-0.17
18.92
46.11
78.70
109.97
131.38
136.10
121.91
92.08
53.64
14.39
-19.85
-46.49
-65.49
-77.90
-84.64
-86.17
-82.98
-76.26
-68.07
-60.73
-55.86
-53.38
-51.22
-45.95
-34.18
-14.27
12.54
42.14
68.92
87.94
96.95
97.21
92.71
88.26
87.41
91.23
98.48
106.79
114.17
119.81
124.02
127.49
130.42
132.14
131.38
126.98
118.80
108.14
97.61
90.18
88.06
91.83
100.17
110.34
119.06
123.31
120.93
110.88
93.35
69.88
43.29
17.23
-4.64
-19.85
-27.91
-30.48
-30.68
-31.87
-36.54
-45.66
-58.78
-74.53
-91.14
-106.73
-119.52
-128.03
-131.48
-130.22
-125.89
-120.96
-117.90
-118.10
-121.55
-127.17
-133.66
-140.22
-146.57
-152.36
-156.66
-157.98
-155.10
-148.04
-138.42
-128.61
-120.26
-113.19
-105.56
-95.22
-81.51
-66.06
-52.28
-43.63
-42.18
-47.97
-59.58
-75.15
-92.90
-111.10
-127.47
-138.94
-142.08
-133.92
-112.98
-79.62
-35.98
14.47
67.39
118.04
161.76
194.86
215.48
224.12
223.39
216.99
208.35
199.47
190.65
181.08
169.91
157.27
144.54
133.91
127.34
125.52
127.37
130.38
131.64
129.12
122.58
113.67
105.20
99.92
99.46
103.87
111.85
121.28
129.85
135.25
135.31
128.39
114.07
93.87
71.30
50.68
35.27
25.55
18.87
10.96
-1.58
-19.38
-39.99
-59.32
-73.95
-82.74
-87.20
-90.58
-96.16
-105.92
-119.59
-134.66
-147.03
-152.39
-147.64
-132.05
-107.15
-75.89
-41.08
-4.60
32.51
69.03
102.79
130.78
150.54
161.56
165.88
167.04
168.05
170.02
171.89
171.85
168.92
163.53
156.67
148.55
138.05
123.56
104.72
83.50
63.73
48.89
39.84
33.94
26.53
13.80
-5.00
-27.15
-48.29
-65.02
-76.69
-85.21
-93.61
-103.92
-116.23
-129.78
-144.15
-160.08
-178.96
-201.47
-226.31
-250.56
-270.29
-282.01
-284.74
-280.08
-270.89
-259.14
-244.50
-224.26
-196.06
-159.53
-117.23
-75.19
-40.69
-19.90
-15.70
-27.13
-49.80
-78.57
-107.83
-127.71
-129.46
-108.86
-69.55
-21.61
20.56
51.91
71.89
82.50
87.10
88.66
89.88
92.96
99.34
109.35
122.44
136.34
148.95
159.54
168.20
175.19
180.13
182.04
179.88
173.77
164.45
153.49
142.60
132.17
121.11
107.63
90.68
70.87
50.67
32.78
19.25
10.80
6.60
4.88
3.79
2.08
-0.79
-4.63
-9.12
-13.67
-17.47
-19.76
-20.24
-19.24
-17.59
-16.06
-14.86
-13.70
-12.12
-10.09
-8.29
-7.85
-9.67
-13.79
-19.31
-24.89
-29.49
-32.87
-35.40
-37.67
-39.98
-42.28
-44.40
-46.41
-48.72
-51.96
-56.67
-63.05
-70.80
-79.02
-86.33
-91.36
-93.43
-93.13
-92.35
-93.27
-96.84
-101.43
-102.80
-95.39
-74.58
-38.76
9.90
66.20
123.67
176.22
219.05
248.67
262.71
260.50
243.59
216.08
183.81
151.98
122.71
94.06
61.51
21.55
-24.98
-72.24
-111.72
-136.74
-145.99
-144.00
-138.81
-138.13
-146.71
-165.81
-194.08
-228.36
-263.78
-293.50
-309.16
-302.87
-270.27
-212.86
-138.10
-56.95
19.95
85.08
134.88
168.72
186.88
189.21
175.28
145.90
104.66
58.39
15.66
-16.08
-33.16
-37.20
-33.93
-30.52
-32.69
-42.97
-60.65
-82.87
-105.62
-124.85
-137.30
-141.32
-137.57
-128.89
-118.80
-109.45
-100.17
-88.00
-69.74
-44.21
-13.24
19.36
49.92
76.50
98.90
117.25
130.50
136.14
131.67
116.55
93.38
67.25
43.87
27.41
19.32
18.66
23.14
30.41
38.78
47.22
55.22
62.37
68.21
72.61
76.09
79.96
86.08
95.96
109.91
126.45
142.53
154.59
159.79
157.01
147.04
132.08
114.84
97.70
82.38
69.85
60.45
53.97
49.75
46.73
43.92
40.73
37.23
33.97
31.44
29.53
27.34
23.49
16.82
7.01
-5.28
-18.74
-32.04
-44.28
-55.08
-64.31
-71.89
-77.64
-81.54
-83.89
-85.29
-86.32
-87.29
-88.52
-90.70
-95.47
-105.47
-123.59
-152.00
-191.44
-241.21
-299.59
-364.01
-430.59
-493.60
-545.49
-578.41
-586.67
-569.05
-529.23
-474.17
-411.10
-345.27
-279.58
-215.96
-156.94
-106.09
-66.67
-39.51
-21.75
-7.44
10.18
36.11
72.28
117.56
168.48
220.22
267.31
304.64
328.74
339.24
339.49
335.63
333.97
338.07
347.11
356.50
360.38
354.58
338.36
314.18
285.94
256.80
228.18
200.07
171.99
143.88
116.27
90.13
66.44
46.14
30.20
19.71
15.78
19.00
28.89
43.79
61.04
77.80
91.76
101.84
108.14
111.58
113.21
113.87
113.98
113.79
113.31
112.22
109.32
102.35
88.69
66.74
37.66
5.87
-22.15
-40.62
-47.01
-43.13
-33.88
-24.54
-18.35
-15.69
-15.13
-15.38
-16.55
-20.12
-27.82
-40.32
-56.54
-73.89
-89.09
-98.96
-101.24
-95.25
-82.10
-64.45
-45.78
-29.63
-18.74
-14.65
-17.44
-25.86
-37.50
-49.19
-58.05
-62.52
-63.43
-63.79
-67.39
-76.62
-90.96
-106.94
-119.89
-126.29
-125.23
-118.44
-108.52
-96.92
-82.72
-62.69
-32.44
11.87
71.81
145.51
227.23
307.82
376.34
422.78
440.79
429.60
394.00
342.47
284.14
225.99
171.65
121.45
74.12
27.98
-18.19
-65.23
-114.13
-165.84
-220.56
-276.37
-328.75
-371.51
-399.72
-413.04
-417.19
-422.02
-436.67
-464.24
-499.25
-529.67
-542.61
-530.44
-493.97
-440.96
-381.50
-323.04
-268.08
-215.22
-162.16
-108.29
-55.25
-5.63
39.43
81.33
124.11
172.46
229.39
294.33
362.39
425.66
475.52
505.47
512.88
499.10
467.96
424.15
372.19
316.60
262.48
215.31
179.85
158.24
148.86
146.77
145.64
140.28
128.14
109.39
85.78
59.29
31.44
3.59
-22.70
-45.53
-63.16
-74.75
-80.76
-82.64
-82.16
-80.76
-78.96
-76.41
-72.24
-65.58
-56.08
-44.28
-31.67
-20.46
-13.09
-11.62
-17.09
-29.10
-45.67
-63.47
-78.55
-87.37
-87.67
-79.08
-63.05
-42.41
-20.56
-0.74
14.55
23.88
27.02
24.85
19.13
12.15
6.13
2.77
2.81
5.91
10.92
16.29
20.69
23.49
25.06
26.43
28.57
31.69
34.89
36.48
34.92
29.83
22.31
14.54
8.66
5.79
5.48
5.97
4.97
0.37
-9.22
-24.29
-44.44
-68.41
-94.07
-118.61
-139.04
-152.90
-158.97
-157.94
-152.41
-146.14
-142.52
-142.88
-145.40
-145.57
-138.05
-119.32
-89.75
-53.78
-18.03
11.47
31.66
42.79
47.24
47.59
45.43
41.59
37.00
33.47
33.39
38.51
48.88
62.61
76.55
87.45
93.20
93.44
89.53
84.06
80.03
79.86
84.62
93.54
104.31
114.03
120.35
122.09
119.26
112.34
101.56
86.51
66.34
40.26
8.19
-29.00
-69.22
-109.17
-144.52
-170.66
-184.05
-183.41
-170.33
-148.53
-122.40
-95.24
-68.42
-41.89
-15.39
10.45
34.00
53.55
68.46
79.57
88.75
97.55
106.11
112.93
115.68
112.46
102.84
88.20
71.13
54.71
41.58
33.36
30.44
32.04
36.43
41.34
44.40
43.81
38.77
29.56
17.24
3.12
-11.85
-27.36
-43.62
-60.83
-78.64
-95.90
-110.92
-122.08
-128.17
-128.55
-122.78
-110.24
-90.21
-62.25
-26.60
15.59
62.74
113.10
164.70
214.64
258.48
290.28
304.00
295.79
265.95
219.55
164.94
110.97
64.03
26.42
-3.71
-30.74
-59.27
-92.40
-131.04
-174.09
-219.23
-263.43
-302.91
-333.33
-350.51
-352.27
-340.36
-320.80
-301.99
-290.99
-289.89
-294.76
-297.85
-292.02
-274.67
-248.73
-220.21
-194.07
-171.02
-147.21
-116.72
-75.46
-23.97
32.00
83.17
119.70
134.03
123.28
90.45
44.03
-4.56
-43.85
-65.48
-65.91
-46.14
-10.02
37.73
92.81
151.48
209.55
262.34
304.86
332.62
342.34
332.61
304.56
262.51
214.10
168.60
135.51
121.81
129.55
154.85
188.93
221.38
243.47
250.30
239.92
212.97
171.59
118.80
58.21
-5.89
-68.30
-123.85
-169.24
-206.60
-242.85
-286.65
-343.86
-413.89
-488.79
-555.91
-603.09
-613.16
-579.89
-510.51
-422.35
-334.27
-258.67
-199.28
-154.21
-120.19
-95.96
-79.73
-69.78
-63.53
-57.72
-49.74
-38.52
-24.46
-8.51
7.90
23.57
38.14
52.79
70.16
93.04
122.51
156.17
187.79
209.31
213.88
199.90
173.07
144.54
125.78
123.24
135.95
157.27
179.51
197.76
211.23
221.79
231.07
238.61
242.16
239.61
230.86
218.11
204.49
192.41
182.73
175.00
168.29
161.74
154.81
147.24
139.17
131.16
124.13
118.89
115.57
113.35
110.61
105.84
98.46
89.16
79.46
70.76
63.34
56.17
47.57
36.26
22.28
7.01
-7.45
-19.35
-27.96
-33.54
-36.89
-38.59
-38.96
-38.34
-37.41
-37.17
-38.39
-41.15
-44.74
-48.15
-50.50
-51.87
-53.15
-55.25
-58.21
-60.72
-60.66
-56.14
-46.53
-32.37
-15.31
2.51
19.16
33.40
44.76
53.38
59.71
64.24
68.25
72.87
78.44
84.28
88.98
91.33
90.99
88.64
85.57
84.21
86.69
93.61
103.60
113.52
119.71
119.15
110.50
88.97
55.18
15.11
-22.37
-50.30
-67.54
-78.45
-89.35
-105.02
-126.18
-150.48
-173.76
-191.85
-201.49
-200.78
-188.90
-166.48
-133.62
-95.37
-58.25
-27.83
-7.24
3.55
4.38
-5.44
-25.99
-55.54
-90.57
-124.63
-150.56
-163.30
-161.72
-148.45
-127.76
-103.39
-77.22
-49.69
-19.95
12.62
47.28
81.54
111.69
134.18
146.94
149.83
144.38
133.81
121.96
112.06
105.77
102.83
101.69
100.49
98.03
94.40
91.36
91.79
98.56
112.95
133.60
156.34
175.25
184.75
181.76
166.99
144.38
119.32
96.09
76.10
57.81
37.85
12.64
-20.60
-63.29
-115.17
-173.58
-232.71
-283.70
-316.60
-323.84
-303.90
-263.10
-214.20
-172.17
-148.70
-148.29
-167.37
-196.71
-225.40
-244.48
-248.94
-237.74
-212.71
-177.43
-136.36
-94.27
-55.64
-23.82
0.06
17.55
32.34
48.59
68.89
92.71
116.36
134.41
141.90
136.46
119.17
94.08
66.80
42.63
25.29
16.21
14.59
18.01
23.48
28.41
31.37
32.35
32.26
32.18
32.35
31.74
28.77
22.41
12.85
1.77
-8.38
-15.30
-17.46
-14.46
-7.40
1.85
11.04
17.81
19.92
15.81
5.14
-10.60
-28.55
-46.19
-61.59
-73.61
-81.95
-86.98
-89.62
-91.30
-93.21
-96.32
-101.80
-109.80
-119.00
-127.56
-134.41
-140.16
-146.74
-155.34
-157.83
-146.87
-118.05
-72.78
-18.69
33.65
75.40
102.23
115.98
119.37
116.61
109.70
98.28
80.49
54.10
17.53
-30.08
-87.83
-153.39
-221.16
-284.11
-332.84
-357.77
-352.80
-318.31
-269.96
-216.34
-164.69
-120.76
-87.39
-63.54
-45.61
-30.35
-15.36
0.62
19.46
41.84
68.37
99.60
135.57
174.64
213.16
246.17
268.79
278.40
273.23
253.02
219.32
175.97
129.07
85.72
52.28
32.00
24.63
25.95
30.54
34.57
37.01
38.70
40.34
41.02
38.50
31.18
19.35
5.74
-5.51
-11.02
-9.82
-3.49
4.95
12.77
18.77
23.21
27.21
32.04
38.37
45.84
53.26
59.18
62.59
63.54
63.30
63.75
66.61
72.52
80.73
89.46
96.70
100.98
101.81
99.62
95.33
89.87
83.80
77.30
70.24
62.42
53.76
44.44
34.92
25.88
18.00
11.70
7.07
3.88
1.82
0.86
1.31
3.79
8.93
17.07
28.12
41.66
57.04
73.48
89.99
105.30
118.02
126.92
131.26
130.98
126.51
118.35
106.72
91.55
72.89
51.31
28.19
5.45
-15.00
-31.84
-44.63
-53.68
-59.63
-63.13
-64.61
-64.41
-62.88
-60.51
-57.85
-55.47
-53.74
-52.78
-52.52
-52.72
-53.19
-53.73
-54.24
-54.63
-54.82
-54.75
-54.46
-54.17
-54.15
-54.64
-55.55
-56.37
-56.27
-54.33
-49.96
-43.14
-34.45
-24.83
-15.25
-6.45
1.19
7.55
12.63
16.34
18.54
19.15
18.24
16.13
13.30
10.17
6.99
3.76
0.33
-3.34
-7.06
-10.34
-12.60
-13.39
-12.69
-10.89
-8.68
-6.79
-5.72
-5.54
-5.88
-6.04
-5.16
-2.50
2.27
8.94
16.68
24.27
30.38
33.87
34.13
31.18
25.62
18.41
10.67
3.35
-2.92
-7.93
-11.87
-15.22
-18.54
-22.37
-27.01
-32.56
-38.95
-46.00
-53.54
-61.36
-69.18
-76.49
-82.62
-86.76
-88.25
-86.87
-82.97
-77.40
-71.09
-64.58
-57.68
-49.58
-39.29
-26.40
-11.53
3.76
17.57
28.43
35.96
40.84
44.27
47.23
49.86
51.47
50.98
47.63
41.43
33.23
24.35
16.07
9.32
4.48
1.61
0.62
1.46
4.12
8.54
14.48
21.45
28.80
35.83
41.89
46.41
48.87
48.79
45.79
39.68
30.67
19.37
6.82
-5.68
-16.76
-25.37
-31.15
-34.74
-37.77
-42.29
-49.80
-60.41
-72.64
-84.22
-93.38
-99.99
-105.58
-112.21
-120.84
-130.26
-137.33
-138.46
-131.35
-116.00
-94.41
-69.46
-43.60
-18.34
5.67
28.05
48.41
66.42
82.07
95.89
108.68
120.94
132.34
141.47
146.23
144.61
135.64
120.07
100.40
80.23
63.09
51.43
45.93
45.60
48.46
52.33
55.52
57.07
56.78
54.98
52.47
50.41
50.14
52.87
59.18
68.62
79.51
89.13
94.45
93.09
84.30
69.48
51.90
35.71
24.61
20.75
24.30
33.77
46.89
61.38
75.39
87.71
97.66
105.08
110.39
114.45
118.22
122.01
124.94
124.88
119.41
107.12
88.89
67.98
48.90
35.42
28.81
27.25
26.80
23.35
14.45
0.25
-17.05
-34.51
-49.89
-62.18
-71.65
-79.02
-84.77
-89.03
-91.53
-91.96
-90.56
-88.05
-85.29
-82.67
-79.70
-75.34
-69.18
-62.82
-60.14
-65.98
-83.59
-112.46
-147.82
-182.55
-210.27
-228.29
-237.81
-241.94
-242.39
-237.38
-222.34
-193.09
-149.75
-98.46
-49.72
-13.63
4.94
8.96
8.01
13.72
34.35
71.30
118.81
166.89
205.91
229.70
236.16
225.79
199.67
158.78
105.54
46.07
-9.36
-48.49
-61.50
-45.71
-7.30
40.30
81.27
102.63
97.75
67.00
16.66
-43.11
-100.50
-144.40
-166.78
-164.77
-141.74
-106.45
-70.29
-43.75
-33.49
-40.85
-61.90
-88.87
-112.25
-123.65
-118.27
-96.57
-64.10
-29.53
-1.40
14.80
17.88
10.18
-4.19
-21.03
-36.77
-48.55
-54.27
-52.84
-44.42
-30.82
-14.88
0.71
14.54
26.74
38.35
50.31
62.57
74.01
83.20
89.20
91.95
92.08
90.34
87.14
82.48
76.41
69.29
61.64
53.55
44.29
32.33
16.11
-4.82
-29.19
-54.02
-75.84
-91.90
-101.21
-104.60
-104.14
-101.94
-99.10
-95.58
-90.26
-81.98
-69.87
-53.65
-33.43
-9.68
16.69
44.53
72.16
98.01
120.57
139.26
154.34
166.48
176.20
183.28
187.26
186.71
180.41
166.54
143.54
110.44
67.71
18.13
-33.34
-79.99
-117.06
-142.43
-158.62
-170.88
-184.91
-204.50
-230.16
-259.89
-289.88
-318.01
-333.67
-327.51
-293.56
-233.30
-156.12
-75.16
-7.30
44.67
82.24
108.84
127.18
139.43
147.03
150.51
150.10
145.71
137.87
126.09
110.72
93.46
77.87
67.71
64.89
68.85
77.19
88.07
99.79
111.71
123.33
133.89
142.17
146.94
147.76
144.77
139.27
132.38
125.18
118.44
112.54
107.35
102.37
97.12
90.73
82.92
73.53
62.73
50.69
37.36
21.86
2.13
-21.04
-48.49
-81.34
-121.00
-168.85
-225.24
-288.08
-351.70
-406.99
-443.54
-453.96
-436.78
-397.78
-348.03
-299.54
-260.86
-234.71
-218.66
-207.52
-196.36
-181.41
-160.41
-132.67
-99.32
-63.65
-30.64
-5.24
9.93
15.87
17.41
21.23
33.31
56.74
91.13
133.01
177.14
217.80
250.06
271.03
280.65
281.54
277.80
273.33
270.15
267.80
264.12
256.53
243.34
224.41
201.04
175.34
149.74
126.59
107.85
94.85
88.05
87.03
90.71
97.65
106.23
114.80
121.75
125.80
126.21
122.94
116.37
106.73
93.51
75.20
49.82
15.87
-26.55
-74.91
-124.42
-169.25
-204.54
-228.26
-242.08
-250.50
-258.85
-270.86
-286.98
-304.18
-317.33
-321.39
-313.48
-293.96
-266.23
-235.50
-207.37
-186.22
-174.07
-169.96
-170.18
-169.23
-161.50
-143.06
-112.66
-71.99
-24.78
24.21
70.30
109.35
138.21
154.93
159.39
153.67
141.83
128.73
118.36
112.49
110.62
111.25
113.49
117.65
124.64
134.44
145.18
153.74
157.52
156.41
152.78
149.52
147.13
142.06
128.12
100.36
59.22
11.91
-29.89
-55.47
-60.36
-48.51
-30.19
-16.98
-16.33
-28.81
-49.07
-69.54
-84.74
-93.63
-99.06
-105.13
-114.14
-125.05
-133.92
-136.25
-129.36
-113.47
-91.00
-64.78
-36.83
-8.43
18.90
42.97
61.69
74.51
83.27
91.20
100.72
111.40
119.73
120.96
111.70
91.15
60.57
21.47
-25.40
-78.88
-135.44
-187.95
-226.76
-243.29
-233.79
-200.94
-152.58
-99.05
-50.20
-13.57
6.57
10.03
0.83
-13.51
-24.23
-24.46
-11.93
10.48
36.47
59.51
75.59
84.03
86.52
85.36
82.22
78.14
74.24
72.09
73.35
78.81
87.77
98.39
108.70
117.46
124.49
130.22
134.85
137.94
138.50
135.50
128.44
117.44
103.07
86.14
67.86
50.19
35.82
27.50
26.58
31.83
39.39
44.19
42.31
32.86
18.17
2.60
-9.83
-17.07
-19.28
-17.78
-13.74
-7.54
0.78
10.70
21.03
30.17
36.97
41.30
43.79
44.84
43.53
37.48
24.14
3.09
-22.67
-46.64
-60.18
-55.01
-26.06
26.29
95.38
169.76
236.68
285.06
308.28
305.32
280.46
241.03
194.44
145.94
98.06
52.16
9.09
-30.05
-63.91
-91.08
-110.41
-120.30
-120.57
-116.80
-114.46
-117.19
-124.76
-136.62
-152.19
-171.20
-193.67
-219.51
-247.94
-276.98
-305.32
-333.70
-365.11
-402.60
-446.51
-492.63
-532.77
-557.54
-559.74
-537.78
-496.07
-442.69
-385.54
-329.66
-276.93
-227.58
-181.99
-141.02
-105.65
-75.95
-50.15
-25.00
2.83
35.10
71.22
108.68
144.52
176.69
204.99
231.00
257.50
287.37
322.65
363.58
408.02
451.30
486.60
506.40
504.73
479.71
435.06
379.45
323.60
276.42
242.10
219.69
205.12
194.37
185.54
179.04
175.81
175.44
175.65
173.53
167.64
159.15
151.07
146.02
144.01
141.69
133.87
116.34
88.14
52.24
14.27
-20.12
-47.53
-67.89
-83.80
-98.33
-113.01
-126.83
-136.87
-140.11
-135.45
-124.56
-111.18
-99.46
-91.88
-88.42
-87.07
-85.33
-81.72
-76.49
-71.03
-66.72
-63.88
-61.46
-57.67
-50.93
-40.71
-27.89
-14.41
-2.56
5.87
10.19
10.98
9.69
7.99
6.92
6.51
5.85
3.60
-1.21
-8.52
-17.16
-25.43
-31.90
-36.13
-38.77
-40.96
-43.59
-46.57
-48.88
-49.13
-46.41
-40.85
-33.73
-26.84
-21.70
-18.83
-17.72
-17.31
-16.72
-15.86
-15.44
-16.45
-19.63
-24.96
-31.86
-39.57
-47.70
-56.31
-65.67
-75.60
-85.19
-92.89
-97.01
-96.56
-91.72
-83.83
-74.99
-67.36
-62.58
-61.41
-63.81
-69.15
-76.68
-85.80
-96.23
-107.87
-120.77
-134.70
-148.96
-162.16
-172.28
-177.19
-175.55
-167.82
-156.79
-147.06
-143.32
-148.27
-161.31
-178.73
-195.46
-207.27
-212.25
-210.79
-204.26
-193.36
-177.53
-155.41
-126.14
-90.40
-50.40
-8.99
31.55
70.27
107.55
144.42
181.99
221.11
262.26
305.47
349.91
393.54
433.05
464.47
484.13
489.67
480.40
457.00
421.07
374.94
321.89
266.41
213.77
168.78
134.10
109.21
90.74
74.26
56.36
35.92
13.93
-7.82
-27.91
-45.73
-60.92
-72.58
-79.06
-78.55
-70.33
-55.42
-36.58
-17.28
-0.55
11.90
19.66
23.19
23.10
19.87
13.77
5.22
-5.03
-15.69
-25.12
-31.87
-35.18
-35.38
-33.97
-32.94
-34.05
-37.93
-43.89
-50.34
-55.58
-58.72
-59.87
-59.89
-59.57
-59.12
-58.06
-55.75
-51.95
-47.18
-42.53
-39.15
-37.62
-37.73
-38.62
-39.31
-39.17
-38.12
-36.55
-34.96
-33.68
-32.66
-31.55
-29.90
-27.38
-23.92
-19.72
-15.17
-10.75
-6.96
-4.26
-2.99
-3.26
-4.87
-7.19
-9.34
-10.35
-9.49
-6.42
-1.36
4.88
11.15
16.06
18.37
17.22
12.41
4.47
-5.32
-15.17
-23.15
-27.63
-27.71
-23.38
-15.49
-5.47
5.16
15.12
23.63
30.31
35.05
37.85
38.80
38.16
36.46
34.39
32.51
30.96
29.38
27.10
23.58
18.70
12.89
6.82
1.10
-3.87
-7.92
-10.86
-12.39
-12.16
-10.01
-6.19
-1.46
3.17
6.64
8.13
7.23
3.99
-1.17
-7.49
-14.09
-20.13
-25.02
-28.58
-30.92
-32.35
-33.14
-33.49
-33.54
-33.48
-33.56
-33.97
-34.70
-35.45
-35.76
-35.18
-33.57
-31.15
-28.52
-26.42
-25.59
-26.70
-30.34
-37.10
-47.46
-61.65
-79.24
-99.00
-118.97
-136.87
-150.72
-159.21
-161.85
-158.76
-150.50
-137.98
-122.68
-106.67
-92.40
-81.98
-76.51
-75.65
-78.04
-82.03
-86.41
-90.51
-93.86
-95.57
-94.18
-88.11
-76.45
-59.47
-38.48
-14.82
11.12
40.31
74.35
113.88
157.08
199.27
233.99
255.32
260.31
250.39
230.97
209.62
193.35
186.54
190.01
201.45
216.58
230.32
237.48
233.48
215.03
181.03
133.35
77.10
19.98
-29.44
-63.92
-79.58
-76.83
-59.78
-34.37
-5.97
22.60
51.59
83.35
120.45
163.66
210.74
256.63
294.70
318.59
323.97
309.53
277.12
231.19
177.47
121.43
66.81
14.91
-35.33
-86.69
-142.41
-204.86
-274.40
-348.63
-422.37
-488.46
-539.54
-570.23
-578.87
-567.98
-543.34
-511.76
-478.92
-447.83
-418.56
-389.06
-356.40
-317.90
-272.06
-219.12
-160.97
-100.99
-43.06
9.78
56.30
97.79
138.04
182.21
234.73
297.04
365.76
432.32
485.16
513.66
512.75
485.55
443.07
399.88
368.46
354.26
353.98
357.58
353.19
332.36
293.52
242.40
189.10
144.32
115.25
103.40
104.41
109.68
109.57
96.26
66.05
20.09
-35.00
-89.05
-131.36
-154.25
-155.80
-140.01
-114.72
-88.22
-67.40
-55.80
-54.24
-62.42
-79.84
-105.82
-138.71
-175.07
-209.82
-238.95
-259.83
-272.10
-277.43
-278.65
-278.98
-281.33
-287.62
-289.68
-279.64
-251.84
-206.21
-148.45
-86.61
-27.49
24.67
67.93
101.51
123.61
132.07
126.14
107.32
80.56
54.43
38.70
40.89
62.96
98.66
136.21
162.97
170.61
157.85
132.11
106.25
92.49
96.67
115.21
137.46
150.73
146.47
123.24
86.72
46.06
9.69
-18.25
-38.70
-55.82
-74.52
-97.17
-123.92
-152.88
-181.83
-209.14
-233.52
-253.05
-264.72
-265.30
-251.49
-222.83
-181.55
-131.74
-77.66
-22.56
31.18
82.85
123.05
145.40
143.67
115.83
66.62
6.98
-49.57
-91.68
-114.40
-121.12
-120.23
-122.61
-136.58
-165.00
-204.98
-249.61
-290.80
-321.84
-339.20
-341.61
-330.57
-308.64
-278.63
-243.25
-205.31
-167.79
-133.64
-105.11
-82.40
-64.27
-48.13
-31.06
-10.89
13.18
40.81
70.81
101.95
134.03
167.52
203.65
243.34
286.18
329.80
370.13
402.47
423.02
430.16
424.76
409.59
388.18
363.47
337.30
310.40
283.09
256.10
231.09
210.42
196.47
190.53
192.08
198.67
206.65
212.59
214.48
212.03
206.08
197.18
184.57
166.17
139.59
103.40
58.06
5.68
-51.20
-111.17
-174.86
-244.24
-320.62
-402.25
-483.15
-554.10
-605.67
-632.04
-633.31
-615.20
-586.27
-554.13
-522.64
-491.53
-458.25
-420.52
-378.01
-332.28
-285.27
-237.69
-188.41
-135.00
-75.06
-7.47
66.87
144.63
220.53
288.35
342.30
378.73
397.11
400.17
392.75
379.97
365.56
351.29
337.44
323.87
310.96
299.52
290.16
282.44
274.68
264.60
250.37
231.48
208.88
184.55
160.56
138.42
118.68
101.09
84.79
68.61
51.51
33.05
14.12
-2.97
-14.90
-18.62
-12.95
0.41
16.74
29.72
33.46
24.77
4.29
-23.63
-52.59
-76.35
-90.59
-94.10
-88.84
-79.26
-71.15
-70.52
-82.49
-110.10
-153.24
-208.01
-266.87
-320.17
-358.57
-375.50
-368.80
-340.89
-297.76
-247.25
-197.02
-153.00
-118.37
-93.26
-75.31
-60.78
-45.54
-25.76
1.87
39.90
89.57
149.67
215.46
278.62
329.16
358.80
364.42
349.59
323.24
295.75
274.59
261.73
253.87
244.96
229.73
206.20
176.14
143.83
113.75
88.94
70.14
56.12
44.63
33.24
19.78
2.58
-19.17
-45.23
-73.98
-102.60
-127.60
-145.69
-154.55
-153.46
-143.53
-127.51
-109.28
-92.99
-82.08
-78.42
-81.66
-89.51
-98.57
-105.60
-108.63
-107.40
-103.23
-98.45
-95.58
-96.37
-100.99
-107.70
-113.21
-113.99
-107.85
-95.01
-77.90
-59.84
-43.17
-28.11
-12.79
5.57
28.91
57.34
89.03
121.14
150.92
176.51
197.01
212.25
222.62
229.12
233.42
237.48
242.65
248.66
252.79
250.07
234.74
202.64
153.47
91.89
26.91
-30.63
-70.90
-87.28
-77.53
-43.86
7.72
68.14
126.60
172.55
197.89
199.02
177.43
138.63
89.59
36.04
-18.94
-74.31
-129.07
-180.44
-223.72
-253.98
-268.30
-267.12
-253.85
-233.00
-208.26
-181.66
-154.23
-127.44
-104.36
-89.48
-87.15
-99.32
-124.14
-156.20
-188.69
-216.04
-235.62
-247.61
-253.28
-252.85
-244.43
-224.76
-191.42
-145.04
-89.91
-32.53
21.13
67.92
107.78
142.07
171.21
193.39
204.71
200.96
179.49
140.47
86.83
23.57
-43.29
-107.34
-161.84
-200.91
-220.59
-219.96
-201.31
-169.44
-130.25
-89.01
-49.35
-12.03
23.41
57.79
92.02
127.17
164.47
204.65
246.80
287.75
323.96
351.22
366.06
366.77
354.05
330.93
302.05
272.68
247.80
233.14
231.92
243.41
262.71
282.31
294.91
296.05
285.31
253.74
199.61
127.57
47.79
-28.27
-92.51
-141.60
-175.74
-196.87
-207.59
-208.89
-202.50
-190.84
-176.71
-162.44
-149.27
-137.21
-125.79
-114.81
-103.14
-90.87
-78.86
-68.42
-60.72
-56.03
-53.68
-52.68
-52.32
-51.53
-50.49
-49.79
-50.14
-51.83
-54.39
-56.81
-58.20
-58.37
-57.53
-57.33
-59.52
-65.44
-75.58
-89.63
-106.92
-127.28
-151.84
-178.23
-206.54
-237.53
-272.40
-312.43
-358.19
-408.41
-458.89
-502.54
-530.75
-536.90
-518.25
-477.53
-422.05
-361.08
-302.53
-250.80
-206.38
-167.12
-130.82
-95.92
-61.93
-29.04
2.72
33.93
65.69
98.86
133.24
166.63
195.63
216.79
228.36
231.19
228.69
225.46
225.47
230.84
241.87
258.24
280.07
307.67
340.01
373.12
399.57
409.90
395.63
352.62
283.44
197.57
109.07
32.50
-21.88
-51.10
-59.66
-56.76
-52.03
-52.25
-60.56
-78.13
-106.21
-146.52
-199.37
-260.77
-321.10
-367.40
-388.47
-379.86
-346.07
-298.07
-248.05
-204.36
-169.24
-139.88
-111.81
-81.72
-48.79
-14.20
20.31
53.72
85.97
117.55
148.94
179.97
210.03
238.79
266.97
296.30
328.43
363.19
397.37
424.99
439.23
435.30
412.57
374.89
328.79
280.60
233.96
189.24
144.93
99.54
53.68
10.09
-27.96
-58.23
-80.59
-96.23
-105.97
-109.04
-103.45
-87.94
-64.28
-37.52
-13.64
4.10
17.69
33.38
57.58
91.89
130.81
163.67
180.09
175.43
152.93
121.52
90.98
67.50
52.31
43.26
37.72
34.78
35.45
40.76
50.40
62.10
72.42
78.56
79.55
76.43
71.41
66.42
62.29
58.65
54.51
48.94
41.55
32.45
22.06
10.88
-1.04
-14.64
-32.29
-57.25
-92.07
-136.25
-184.69
-228.37
-257.53
-265.98
-254.25
-229.53
-202.23
-180.87
-168.34
-161.24
-152.48
-135.47
-107.33
-69.93
-28.59
10.31
42.07
65.29
82.13
97.09
114.66
136.72
161.30
183.15
196.07
195.92
182.59
159.89
133.32
107.53
84.42
63.31
42.38
20.33
-3.24
-28.58
-56.67
-89.18
-127.10
-168.79
-209.18
-240.72
-256.08
-250.94
-225.42
-183.62
-131.68
-75.86
-21.44
27.14
65.96
91.71
102.53
99.06
84.73
64.89
45.11
29.36
19.16
13.71
10.73
7.86
3.66
-2.01
-8.20
-13.47
-16.46
-16.37
-13.02
-6.63
2.30
12.99
24.55
36.07
46.97
57.36
67.97
79.85
93.69
109.31
125.48
140.37
152.15
159.53
161.78
158.34
148.25
129.93
101.59
62.13
12.09
-45.79
-106.75
-165.02
-215.26
-253.91
-280.02
-295.24
-302.98
-307.19
-311.12
-316.52
-323.62
-331.58
-339.11
-344.92
-347.91
-346.94
-340.92
-328.98
-310.71
-286.39
-256.82
-223.03
-186.16
-147.48
-108.58
-71.27
-37.21
-7.42
17.91
39.17
56.84
71.30
82.93
92.70
102.29
113.88
129.28
149.10
172.44
197.25
221.00
241.46
257.17
267.63
273.37
275.86
277.20
279.50
283.94
290.09
295.81
298.03
294.07
282.91
265.63
244.92
223.74
203.76
184.47
163.34
136.96
102.76
60.46
12.41
-37.24
-84.06
-124.87
-158.53
-185.47
-206.94
-224.05
-237.36
-247.11
-253.19
-254.76
-249.73
-234.83
-207.21
-167.22
-120.66
-78.43
-52.87
-51.89
-74.24
-108.88
-139.37
-151.16
-137.62
-101.74
-52.95
-1.64
45.17
84.63
116.04
138.20
148.58
144.79
126.87
98.56
66.19
36.26
12.69
-4.16
-16.55
-27.70
-39.86
-53.67
-68.50
-83.28
-97.28
-110.38
-122.68
-133.80
-142.33
-145.98
-142.26
-129.57
-107.98
-79.37
-46.89
-14.01
16.52
43.09
65.51
84.80
102.92
122.18
143.99
167.51
188.72
201.13
198.09
176.06
136.92
87.85
38.65
-2.27
-30.95
-48.37
-58.39
-64.80
-69.17
-70.97
-69.29
-64.75
-60.12
-59.14
-64.52
-76.36
-91.99
-107.13
-117.61
-120.65
-115.25
-101.93
-82.21
-58.32
-32.89
-8.55
12.96
31.80
50.57
73.46
104.26
143.80
188.46
230.87
262.65
278.12
276.65
262.62
242.76
222.71
204.57
186.80
166.28
140.91
111.25
80.08
50.64
24.56
1.10
-22.04
-46.93
-73.80
-100.57
-123.86
-140.75
-150.30
-153.97
-154.65
-155.09
-156.41
-157.73
-156.92
-151.98
-142.19
-128.41
-112.46
-96.15
-80.44
-65.39
-50.56
-35.71
-21.21
-8.00
2.82
10.44
14.74
16.34
16.43
16.46
17.64
20.57
25.08
30.31
35.16
38.85
41.18
42.58
43.67
44.88
46.13
46.93
46.76
45.38
43.09
40.47
38.18
36.70
36.37
37.58
40.86
46.71
55.14
65.18
74.88
81.86
84.31
81.85
75.69
68.00
60.90
55.45
51.45
47.96
44.17
40.03
36.19
33.37
31.63
30.06
27.10
21.40
12.55
1.44
-10.16
-20.41
-28.26
-33.93
-38.65
-44.10
-51.68
-62.02
-74.93
-89.51
-104.28
-117.23
-125.86
-127.59
-120.40
-103.48
-77.80
-45.91
-11.20
22.99
54.25
81.21
103.29
120.20
131.62
137.36
137.70
133.55
126.42
117.83
108.90
100.08
91.23
82.14
72.79
63.56
55.11
48.04
42.75
39.30
37.66
37.68
39.15
41.67
44.65
47.37
49.17
49.76
49.23
48.13
47.17
47.09
48.26
50.47
52.83
53.89
52.05
46.15
35.93
22.05
5.85
-11.27
-28.28
-44.76
-60.60
-75.66
-89.53
-101.55
-111.15
-118.09
-122.67
-125.67
-128.13
-131.08
-135.32
-141.22
-148.56
-156.58
-164.09
-169.96
-173.50
-174.74
-174.26
-172.64
-169.89
-165.23
-157.45
-145.55
-129.42
-109.87
-88.32
-66.12
-44.02
-22.06
0.24
23.50
48.16
74.15
100.64
125.90
147.49
162.77
169.69
167.26
155.63
135.43
107.28
71.83
30.45
-13.93
-56.80
-93.33
-120.27
-137.30
-146.79
-152.00
-154.85
-154.94
-150.49
-140.46
-126.31
-111.88
-101.38
-96.91
-97.24
-98.62
-97.06
-90.43
-79.16
-65.27
-50.81
-36.74
-22.91
-8.87
5.37
19.21
31.95
43.27
53.31
62.34
70.27
76.55
80.51
81.74
80.39
77.01
72.31
66.89
61.36
56.42
52.91
51.50
52.33
54.61
56.77
56.93
53.77
47.14
38.20
28.82
20.76
14.86
10.75
7.24
2.98
-2.77
-9.80
-17.09
-23.23
-26.96
-27.49
-24.66
-18.84
-10.75
-1.32
8.51
17.88
26.11
32.77
37.63
40.66
42.03
42.16
41.63
41.07
40.97
41.50
42.47
43.52
44.36
45.02
45.87
47.36
49.72
52.81
56.20
59.35
61.97
63.99
65.53
66.64
67.17
66.82
65.29
62.50
58.66
54.19
49.67
45.70
42.93
41.89
42.96
46.11
50.64
55.27
58.29
57.99
53.14
43.43
29.36
12.00
-7.66
-29.00
-51.85
-76.06
-100.97
-125.05
-146.00
-161.35
-169.32
-169.35
-162.28
-149.97
-134.60
-118.07
-101.62
-85.84
-70.78
-56.33
-42.55
-29.87
-19.17
-11.56
-7.93
-8.42
-12.13
-17.22
-21.39
-22.65
-19.91
-13.32
-4.10
5.92
14.70
20.57
22.70
21.39
18.11
15.00
13.94
15.51
18.50
20.21
17.80
9.72
-3.34
-18.66
-32.86
-43.42
-49.66
-52.47
-53.37
-53.47
-52.98
-51.62
-49.24
-46.23
-43.41
-41.52
-40.72
-40.66
-40.91
-41.41
-42.54
-44.76
-47.92
-50.89
-51.77
-48.58
-40.15
-26.69
-9.84
7.93
24.08
36.74
45.19
49.85
51.94
53.03
54.41
56.67
59.48
61.63
61.45
57.26
48.00
33.53
14.73
-6.76
-28.82
-49.15
-65.53
-76.03
-79.37
-75.13
-63.94
-47.32
-27.42
-6.40
13.97
32.65
49.43
64.78
79.57
94.69
110.47
126.42
141.20
153.02
160.37
162.65
160.26
154.21
145.27
133.43
117.98
98.29
74.76
49.21
24.39
2.71
-14.79
-28.79
-40.94
-52.68
-64.26
-74.78
-82.81
-87.29
-87.97
-85.11
-78.96
-69.48
-56.62
-40.91
-23.68
-6.50
9.74
25.43
41.93
60.38
80.52
100.33
116.89
127.71
131.77
129.50
122.02
110.29
94.89
76.48
56.46
36.98
20.08
6.56
-4.59
-15.62
-28.61
-44.07
-60.31
-74.17
-82.53
-83.77
-78.51
-69.21
-59.04
-50.57
-45.11
-42.62
-42.41
-43.76
-46.37
-50.20
-55.18
-60.94
-66.97
-73.00
-79.45
-87.32
-97.52
-109.94
-122.80
-132.90
-136.48
-130.41
-113.04
-84.65
-47.49
-5.54
35.90
71.05
94.79
104.07
98.81
82.00
58.51
33.38
10.04
-10.66
-30.36
-52.07
-78.60
-111.33
-149.84
-192.40
-236.70
-280.34
-320.73
-354.71
-378.46
-388.29
-382.21
-361.35
-330.12
-294.80
-261.00
-231.50
-205.66
-180.56
-153.23
-122.48
-89.00
-54.31
-19.28
16.80
56.06
100.82
151.82
206.99
261.30
308.23
342.13
360.55
365.24
361.27
354.42
348.49
343.76
337.55
326.16
307.03
279.97
246.81
210.21
172.44
134.83
97.96
62.19
28.11
-3.21
-30.24
-51.23
-64.74
-70.13
-67.85
-59.31
-46.42
-30.87
-13.81
4.06
22.09
39.39
54.97
68.12
78.71
87.18
94.15
100.15
105.57
111.00
117.46
126.21
138.07
152.69
168.28
182.16
191.96
196.69
197.17
195.40
193.37
191.79
189.55
184.10
172.35
151.83
121.48
81.87
35.04
-15.98
-67.76
-116.91
-160.54
-196.58
-224.00
-242.92
-254.40
-259.94
-260.79
-257.17
-248.24
-232.74
-210.37
-182.92
-154.31
-129.32
-111.48
-101.34
-96.19
-91.41
-82.79
-68.49
-49.56
-29.10
-10.56
3.57
12.35
16.00
15.32
11.21
4.57
-3.51
-11.79
-18.95
-23.89
-25.97
-25.24
-22.33
-18.26
-14.04
-10.38
-7.57
-5.44
-3.55
-1.42
1.31
4.66
8.18
11.00
12.10
10.75
6.94
1.49
-4.36
-9.55
-13.69
-17.13
-20.33
-23.27
-25.03
-24.09
-19.20
-10.16
1.89
14.85
26.55
35.45
40.98
43.20
42.32
38.44
31.59
22.15
11.11
0.10
-9.04
-14.83
-16.66
-14.80
-10.19
-3.97
2.86
9.53
15.55
20.65
24.77
28.19
31.52
35.56
40.88
47.40
54.07
59.11
60.58
57.26
49.32
38.41
27.03
17.53
11.21
7.94
6.58
5.68
4.33
2.33
-0.07
-2.71
-5.93
-10.62
-17.85
-28.21
-41.34
-55.81
-69.48
-80.26
-87.00
-89.98
-90.89
-92.15
-95.84
-102.82
-112.29
-122.08
-129.47
-132.15
-128.87
-119.71
-105.87
-89.32
-72.29
-56.85
-44.49
-35.67
-29.65
-24.53
-17.81
-7.28
8.06
27.53
48.93
69.34
86.13
97.69
103.55
104.06
99.96
92.14
81.71
70.20
59.52
51.47
47.14
46.36
47.79
49.55
50.04
48.67
45.93
43.01
41.07
40.70
41.80
44.03
47.35
52.46
60.51
72.39
87.68
104.21
118.41
126.59
126.45
118.10
104.00
87.79
72.93
61.48
53.92
49.68
47.89
47.93
49.39
51.78
54.27
55.66
54.67
50.45
42.80
32.31
20.14
7.66
-3.79
-13.10
-19.34
-21.64
-19.28
-11.83
0.54
16.90
35.57
54.67
72.58
88.52
102.49
115.03
126.67
137.49
147.09
154.76
159.88
162.31
162.56
161.80
161.61
163.59
168.77
177.11
187.08
195.75
199.41
194.60
179.11
152.54
116.58
74.29
29.62
-13.54
-52.32
-85.54
-114.12
-140.72
-168.51
-199.53
-233.47
-267.45
-297.21
-319.04
-331.31
-334.65
-331.11
-322.80
-311.16
-297.22
-282.22
-267.86
-255.69
-246.24
-238.77
-231.84
-224.60
-217.31
-210.80
-205.03
-198.26
-187.85
-172.01
-151.72
-130.48
-111.98
-97.20
-82.97
-63.36
-33.34
7.97
56.31
104.16
144.32
172.89
189.82
197.46
198.39
193.89
184.14
169.23
150.22
129.34
109.37
92.71
80.57
72.41
65.86
57.25
42.69
19.73
-11.13
-45.92
-78.42
-102.39
-114.23
-114.43
-107.06
-97.71
-90.84
-88.09
-88.22
-88.58
-87.06
-83.23
-78.34
-74.13
-71.59
-70.22
-68.37
-64.04
-55.73
-42.80
-25.41
-4.06
20.57
47.60
75.81
103.56
129.12
151.15
169.07
183.04
193.52
200.78
204.59
204.36
199.53
189.92
175.86
158.00
137.29
114.87
91.99
69.72
48.53
28.08
7.52
-13.66
-34.69
-53.06
-65.21
-67.99
-60.39
-44.23
-23.65
-3.48
12.38
21.84
24.48
20.76
11.31
-3.27
-22.15
-43.94
-66.64
-88.04
-106.47
-121.38
-133.42
-143.79
-153.24
-161.05
-164.88
-161.52
-148.32
-124.71
-92.76
-56.75
-21.62
8.60
31.92
48.48
59.68
67.17
72.05
74.77
75.36
73.93
71.00
67.40
63.88
60.64
57.10
52.13
44.73
34.69
22.89
10.97
0.51
-7.73
-13.95
-18.89
-22.96
-25.76
-26.32
-23.78
-18.18
-10.69
-3.15
2.90
7.05
10.28
14.61
22.19
34.35
50.87
69.72
87.46
100.25
105.12
101.05
89.49
73.73
57.61
43.90
33.43
25.07
16.74
6.69
-5.51
-18.97
-32.02
-43.14
-51.57
-57.34
-61.00
-63.07
-63.75
-62.87
-60.11
-55.29
-48.65
-40.82
-32.70
-25.10
-18.50
-12.93
-8.06
-3.56
0.61
4.06
6.15
6.31
4.50
1.24
-2.58
-6.16
-9.16
-11.83
-14.73
-18.36
-22.76
-27.53
-31.97
-35.44
-37.62
-38.62
-38.82
-38.71
-38.69
-38.95
-39.49
-40.14
-40.62
-40.53
-39.38
-36.68
-32.08
-25.53
-17.44
-8.61
-0.06
7.31
12.95
16.85
19.38
21.03
22.21
23.16
23.94
24.63
25.33
26.10
26.92
27.61
27.89
27.54
26.45
24.65
22.16
18.95
14.98
10.38
5.55
1.19
-1.98
-3.57
-3.79
-3.43
-3.50
-4.79
-7.42
-10.83
-13.97
-15.83
-15.78
-13.70
-9.90
-4.86
0.90
6.83
12.28
16.49
18.74
18.52
15.85
11.27
5.60
-0.37
-6.30
-12.35
-18.96
-26.46
-34.79
-43.31
-51.06
-57.15
-61.06
-62.86
-62.98
-62.02
-60.43
-58.42
-56.08
-53.58
-51.30
-49.81
-49.63
-50.96
-53.47
-56.28
-58.24
-58.34
-56.09
-51.80
-46.29
-40.46
-34.75
-28.92
-22.22
-14.00
-4.19
6.53
17.11
26.76
35.43
43.80
52.74
62.61
72.84
82.07
88.78
92.15
92.44
90.89
89.05
87.89
87.34
86.29
83.33
77.56
69.19
59.52
50.28
42.83
37.51
33.71
30.26
26.17
21.00
14.97
8.70
3.02
-1.26
-3.31
-2.45
1.73
9.04
18.52
28.35
36.30
40.28
39.06
32.75
22.85
11.84
2.33
-3.79
-6.01
-5.17
-3.06
-1.58
-2.10
-5.15
-10.49
-17.53
-25.63
-34.16
-42.46
-49.61
-54.53
-56.23
-54.22
-48.90
-41.53
-34.00
-28.23
-25.58
-26.59
-30.86
-37.36
-44.74
-51.56
-56.63
-59.07
-58.39
-54.42
-47.27
-37.28
-25.02
-11.27
3.07
17.11
30.19
41.88
52.01
60.48
67.19
71.95
74.64
75.33
74.32
72.12
69.22
65.90
62.24
58.31
54.48
51.40
49.87
50.37
52.62
55.50
57.30
56.34
51.64
43.17
31.84
18.98
6.02
-5.73
-15.21
-21.76
-25.40
-27.11
-28.64
-31.88
-37.96
-46.52
-55.79
-63.43
-67.63
-67.88
-64.97
-60.37
-55.31
-50.32
-45.46
-40.80
-36.86
-34.60
-34.79
-37.44
-41.39
-44.54
-44.62
-40.14
-31.04
-18.67
-5.25
7.10
17.07
24.39
29.58
33.41
36.40
38.72
40.23
40.73
40.15
38.62
36.49
34.27
32.57
31.99
32.96
35.64
39.81
44.91
50.14
54.60
57.50
58.44
57.67
56.12
55.20
56.21
59.69
65.05
70.61
74.26
74.40
70.54
63.41
54.46
45.09
36.05
27.39
18.77
10.01
1.33
-6.71
-13.70
-19.69
-25.22
-30.97
-37.28
-43.82
-49.82
-54.57
-58.02
-60.86
-64.12
-68.39
-73.19
-77.05
-78.27
-75.95
-70.65
-64.11
-58.37
-54.62
-52.68
-51.27
-48.93
-44.92
-39.68
-34.44
-30.49
-28.44
-27.92
-27.97
-27.59
-26.26
-24.13
-21.69
-19.36
-17.07
-14.22
-9.86
-3.13
6.36
18.22
31.31
43.94
54.23
60.56
61.98
58.44
50.82
40.60
29.39
18.42
8.33
-0.71
-8.63
-15.23
-20.08
-22.72
-22.94
-20.78
-16.40
-9.94
-1.44
9.07
21.26
34.45
47.63
59.78
70.28
78.95
85.89
91.14
94.45
95.28
93.13
87.88
79.97
70.35
60.10
50.05
40.52
31.32
21.95
11.91
0.89
-11.11
-23.84
-36.81
-49.27
-60.15
-68.28
-72.76
-73.38
-70.87
-66.70
-62.50
-59.50
-58.21
-58.54
-60.25
-63.14
-67.09
-71.74
-76.29
-79.63
-80.74
-79.18
-75.33
-70.21
-65.06
-60.85
-58.03
-56.63
-56.33
-56.59
-56.82
-56.40
-54.86
-51.97
-47.80
-42.66
-37.07
-31.67
-27.08
-23.81
-22.07
-21.64
-21.87
-21.87
-20.79
-18.05
-13.57
-7.65
-0.75
6.74
14.71
23.38
33.09
44.07
56.25
69.15
82.06
94.36
105.82
116.81
128.24
141.14
156.03
172.47
188.97
203.43
214.04
220.02
221.86
220.94
218.69
215.82
212.16
206.98
199.75
190.49
179.67
167.78
154.81
140.25
123.65
105.19
86.10
68.27
53.57
42.98
36.19
31.81
27.99
23.19
16.59
8.20
-1.48
-11.72
-21.88
-31.40
-39.91
-47.19
-53.22
-58.23
-62.59
-66.74
-70.94
-75.21
-79.39
-83.26
-86.73
-89.96
-93.29
-97.00
-101.18
-105.54
-109.58
-112.71
-114.58
-115.16
-114.64
-113.41
-111.83
-110.17
-108.59
-107.14
-105.72
-104.12
-102.03
-99.21
-95.62
-91.43
-87.02
-82.81
-79.11
-76.02
-73.47
-71.27
-69.14
-66.71
-63.52
-59.10
-53.14
-45.70
-37.27
-28.71
-20.98
-14.89
-10.83
-8.73
-8.19
-8.66
-9.71
-11.04
-12.53
-14.09
-15.60
-16.93
-18.01
-18.89
-19.76
-20.82
-22.19
-23.79
-25.44
-26.85
-27.95
-28.82
-29.81
-31.26
-33.46
-36.43
-39.93
-43.57
-46.94
-49.80
-52.13
-54.19
-56.25
-58.45
-60.61
-62.26
-62.83
-61.96
-59.78
-56.87
-54.09
-52.29
-52.04
-53.59
-56.84
-61.28
-65.80
-68.56
-67.13
-59.19
-43.43
-20.33
7.67
36.86
63.45
84.85
100.28
110.59
117.47
122.44
126.25
128.80
129.52
127.85
123.43
116.16
105.92
92.50
75.66
55.35
32.17
7.44
-16.83
-38.37
-55.21
-66.08
-70.67
-69.63
-64.25
-56.15
-46.90
-37.69
-29.22
-21.75
-15.31
-9.91
-5.69
-2.84
-1.49
-1.49
-2.39
-3.56
-4.54
-5.17
-5.70
-6.59
-8.24
-10.80
-14.11
-17.80
-21.41
-24.54
-26.89
-28.31
-28.82
-28.67
-28.31
-28.25
-28.88
-30.30
-32.27
-34.21
-35.45
-35.40
-33.80
-30.74
-26.66
-22.14
-17.69
-13.44
-9.17
-4.48
0.88
6.61
11.79
15.24
16.04
14.01
9.86
4.79
-0.05
-4.06
-7.29
-10.24
-13.34
-16.70
-20.06
-23.04
-25.46
-27.43
-29.14
-30.74
-32.05
-32.79
-32.82
-32.39
-32.15
-32.81
-34.76
-37.73
-40.88
-43.04
-43.20
-40.84
-36.06
-29.36
-21.41
-12.86
-4.21
4.15
11.94
19.01
25.33
31.02
36.35
41.52
46.74
52.19
57.98
64.20
70.85
77.72
84.39
90.22
94.45
96.36
95.38
91.17
83.72
73.48
61.39
48.87
37.47
28.40
22.10
18.14
15.53
13.41
11.61
10.90
12.67
18.21
27.97
41.19
56.21
71.04
84.00
94.08
100.76
103.78
102.75
97.18
86.85
72.24
54.66
36.04
18.37
3.02
-9.46
-19.21
-26.76
-32.68
-37.63
-42.44
-48.05
-55.24
-64.16
-74.01
-83.24
-90.21
-93.87
-94.16
-91.83
-87.80
-82.73
-76.87
-70.22
-62.83
-54.73
-45.64
-34.85
-21.37
-4.47
15.59
37.37
58.47
76.36
89.22
96.41
98.36
96.04
90.47
82.41
72.40
61.01
48.90
36.79
25.20
14.25
3.59
-7.37
-19.08
-31.55
-44.24
-56.35
-67.15
-76.32
-84.07
-91.02
-97.87
-105.08
-112.69
-120.22
-126.80
-131.43
-133.14
-131.22
-125.30
-115.38
-101.80
-85.19
-66.48
-46.74
-27.14
-8.80
7.34
20.52
30.32
36.54
39.31
39.09
36.61
32.71
28.22
23.67
19.30
15.10
11.04
7.13
3.47
0.21
-2.57
-4.73
-6.09
-6.45
-5.78
-4.48
-3.39
-3.45
-5.20
-8.51
-12.64
-16.80
-20.58
-24.05
-27.43
-30.60
-32.94
-33.59
-32.06
-28.56
-23.88
-18.83
-13.76
-8.57
-3.00
2.85
8.32
12.52
14.74
14.82
13.17
10.46
7.31
4.19
1.54
-0.19
-0.38
1.58
6.12
13.24
22.40
32.57
42.37
50.42
55.64
57.55
56.25
52.29
46.45
39.60
32.72
26.89
23.22
22.55
25.19
30.70
38.03
45.89
53.13
59.11
63.63
66.83
68.85
69.78
69.62
68.33
65.90
62.32
57.51
51.41
44.05
35.70
26.93
18.49
11.17
5.45
1.48
-0.99
-2.40
-3.15
-3.54
-3.83
-4.42
-5.96
-9.36
-15.44
-24.52
-36.11
-48.89
-60.94
-70.27
-75.28
-75.15
-69.89
-60.34
-47.88
-34.18
-20.85
-9.15
0.18
6.89
11.14
13.32
13.95
13.62
12.99
12.64
12.85
13.49
13.97
13.52
11.56
8.10
3.80
-0.32
-3.32
-4.83
-5.13
-5.07
-5.57
-7.32
-10.54
-14.94
-19.83
-24.28
-27.32
-28.12
-26.18
-21.40
-14.19
-5.24
4.56
14.45
23.88
32.55
40.29
46.98
52.42
56.37
58.57
58.82
57.05
53.48
48.53
42.85
37.06
31.62
26.73
22.34
18.39
14.93
12.19
10.41
9.57
9.20
8.49
6.55
2.83
-2.74
-9.79
-17.77
-26.14
-34.43
-42.19
-48.83
-53.62
-55.91
-55.35
-52.10
-46.83
-40.52
-34.16
-28.51
-23.89
-20.15
-16.82
-13.21
-8.60
-2.41
5.67
15.64
27.26
40.11
53.63
67.28
80.58
93.20
105.02
116.01
126.16
135.30
143.10
149.09
152.83
154.04
152.71
149.10
143.61
136.53
127.92
117.55
105.15
90.67
74.53
57.71
41.45
26.92
14.83
5.35
-1.73
-6.69
-9.60
-10.35
-8.87
-5.45
-0.88
3.68
7.02
8.17
6.52
1.79
-6.12
-17.17
-31.06
-47.16
-64.34
-81.18
-96.22
-108.35
-117.03
-122.26
-124.49
-124.35
-122.50
-119.55
-115.89
-111.64
-106.56
-100.08
-91.47
-80.19
-66.12
-49.69
-31.84
-13.77
3.38
18.65
31.34
40.96
47.20
49.94
49.35
45.91
40.39
33.72
26.80
20.34
14.72
9.93
5.74
1.76
-2.31
-6.60
-11.03
-15.33
-19.25
-22.59
-25.31
-27.54
-29.49
-31.48
-33.85
-36.93
-40.90
-45.64
-50.61
-54.86
-57.29
-56.92
-53.29
-46.61
-37.71
-27.82
-18.19
-9.82
-3.24
1.51
4.89
7.67
10.71
14.66
19.63
25.15
30.33
34.33
36.71
37.61
37.58
37.04
36.08
34.33
31.48
27.65
23.59
20.41
18.88
18.95
19.58
19.17
16.26
10.13
0.96
-10.29
-22.30
-33.62
-42.88
-48.88
-50.76
-48.23
-41.72
-32.31
-21.40
-10.36
-0.23
8.36
14.99
19.45
21.66
21.79
20.28
17.76
14.84
11.92
9.14
6.43
3.67
0.80
-2.08
-4.70
-6.73
-7.82
-7.72
-6.33
-3.77
-0.29
3.76
8.04
12.16
15.71
18.16
19.05
18.20
15.99
13.50
12.35
14.27
20.59
31.70
46.94
64.73
82.96
99.60
113.13
122.88
129.03
132.38
133.97
134.65
134.74
133.85
131.11
125.48
116.16
102.94
86.27
67.06
46.34
25.00
3.66
-17.23
-37.26
-55.88
-72.55
-86.83
-98.56
-107.97
-115.59
-122.15
-128.37
-134.75
-141.34
-147.66
-152.72
-155.33
-154.53
-149.99
-142.17
-132.23
-121.60
-111.56
-102.85
-95.53
-89.12
-82.80
-75.79
-67.62
-58.24
-48.03
-37.72
-28.02
-19.49
-12.24
-6.00
-0.12
6.19
13.66
22.83
33.75
45.93
58.36
69.62
78.23
83.03
83.51
79.97
73.46
65.46
57.42
50.38
44.81
40.71
37.93
36.49
36.63
38.55
41.98
45.96
48.91
49.15
45.60
38.21
27.95
16.32
4.75
-5.91
-15.39
-23.75
-30.88
-36.40
-39.69
-40.25
-38.08
-33.75
-28.26
-22.69
-17.83
-13.95
-10.78
-7.82
-4.57
-0.84
3.20
7.05
10.16
12.06
12.53
11.50
9.09
5.57
1.43
-2.48
-5.19
-5.94
-4.39
-0.62
4.70
10.57
16.05
20.55
23.96
26.48
28.14
28.88
28.65
27.36
25.07
22.07
18.80
15.96
14.06
12.90
12.17
11.76
11.62
11.76
12.20
12.88
14.25
16.52
18.50
19.34
19.21
18.54
17.93
17.89
18.71
21.64
27.38
33.55
38.32
41.68
44.02
45.89
47.69
49.35
52.50
58.26
63.58
66.87
69.74
74.14
81.64
92.85
107.44
127.43
154.25
183.32
210.55
234.36
252.73
263.98
267.77
247.51
194.24
136.60
90.55
52.24
20.33
-6.56
-29.28
-48.11
-63.42
-73.41
-77.58
-81.70
-90.08
-102.71
-118.19
-134.15
-147.95
-157.41
-159.28
-152.05
-140.21
-128.53
-119.60
-115.22
-115.71
-119.57
-123.97
-124.31
-117.05
-103.16
-84.96
-64.46
-44.00
-25.41
-9.65
3.07
13.61
22.74
29.71
33.88
35.36
34.22
30.43
23.82
14.12
1.54
-13.33
-29.75
-46.47
-61.84
-74.57
-83.99
-90.12
-93.48
-94.89
-95.20
-95.08
-94.93
-94.90
-94.87
-94.60
-93.78
-92.08
-89.14
-84.53
-77.89
-69.07
-58.41
-46.75
-35.34
-25.43
-17.84
-12.70
-9.48
-7.35
-5.53
-3.59
-1.42
1.02
3.91
7.67
12.76
19.43
27.43
36.01
44.10
50.64
54.88
56.50
55.63
52.65
47.99
42.04
35.10
27.47
19.47
11.49
3.87
-3.19
-9.76
-16.15
-22.65
-29.19
-35.09
-39.00
-39.33
-34.95
-25.74
-12.83
1.79
16.00
28.31
38.17
45.80
51.60
55.60
57.33
56.06
51.44
43.93
34.88
26.05
18.99
14.42
12.13
11.31
11.07
10.93
11.06
11.97
14.13
17.51
21.42
24.71
26.17
24.94
20.76
13.99
5.48
-3.52
-11.51
-16.83
-18.01
-14.05
-4.88
8.55
24.50
40.89
56.01
68.83
79.07
86.83
92.18
94.95
94.74
91.27
84.63
75.44
64.70
53.41
42.27
31.45
20.70
9.63
-1.96
-13.86
-25.47
-36.11
-45.22
-52.75
-59.18
-65.38
-72.36
-80.88
-91.11
-102.44
-113.43
-122.00
-125.83
-122.84
-111.66
-91.93
-64.56
-31.62
3.75
37.84
66.98
88.29
100.24
102.98
98.20
88.47
76.45
64.09
52.33
41.15
29.96
18.18
5.50
-7.80
-20.77
-31.75
-38.41
-38.16
-29.03
-10.85
13.91
40.16
61.29
71.18
66.28
46.85
16.79
-17.76
-50.51
-76.81
-94.48
-103.70
-106.01
-103.36
-97.34
-89.07
-79.26
-68.31
-56.10
-41.68
-23.15
1.42
32.46
67.50
101.08
126.55
138.95
137.19
124.18
104.77
82.90
59.88
34.88
6.93
-23.05
-52.16
-76.92
-95.36
-107.90
-116.61
-123.67
-130.07
-135.67
-140.00
-142.95
-144.65
-144.69
-141.64
-133.40
-118.37
-96.55
-69.90
-41.53
-14.45
9.39
29.29
45.29
57.52
66.01
70.90
72.73
72.53
71.36
69.63
66.51
60.21
49.02
32.54
12.49
-7.74
-24.42
-35.15
-39.75
-40.09
-38.80
-37.94
-38.26
-39.44
-40.92
-42.48
-44.32
-46.66
-49.34
-51.74
-53.16
-53.16
-51.80
-49.45
-46.40
-42.69
-38.09
-32.34
-25.43
-17.78
-10.11
-3.16
2.64
7.44
11.88
16.85
23.01
30.52
38.96
47.59
55.73
62.95
69.00
73.53
75.93
75.36
71.17
63.31
52.53
40.20
27.82
16.47
6.46
-2.59
-11.51
-21.12
-31.80
-43.22
-54.36
-63.68
-69.58
-70.98
-67.69
-60.52
-50.98
-40.58
-30.26
-19.99
-8.99
3.57
17.80
32.65
46.16
56.19
61.38
61.72
58.48
53.46
48.07
42.65
36.59
29.05
19.91
10.23
1.97
-2.88
-3.26
0.35
6.16
11.85
15.47
16.10
13.84
9.42
3.74
-2.37
-8.10
-12.48
-14.41
-12.90
-7.44
1.56
12.82
24.44
34.61
42.30
47.48
50.92
53.50
55.71
57.55
58.76
59.20
59.04
58.53
57.70
56.20
53.61
49.94
45.86
42.40
40.19
38.67
36.16
30.64
21.02
7.93
-6.57
-20.05
-30.94
-39.12
-45.55
-51.26
-56.59
-61.00
-63.73
-64.54
-64.12
-63.64
-64.03
-65.45
-67.35
-69.20
-71.00
-73.37
-76.80
-80.76
-83.31
-81.51
-72.77
-56.16
-33.20
-7.58
16.11
34.04
44.28
47.19
44.81
39.73
33.98
28.46
23.23
18.19
13.76
10.96
10.88
13.69
18.19
22.13
23.23
20.39
14.18
6.39
-1.10
-7.29
-12.25
-16.55
-20.32
-22.72
-22.28
-17.87
-9.59
0.92
11.03
18.15
20.83
19.12
14.34
8.31
2.58
-2.06
-5.55
-8.24
-10.55
-12.72
-14.75
-16.62
-18.42
-20.42
-22.97
-26.26
-30.24
-34.58
-38.84
-42.63
-45.73
-48.08
-49.63
-50.15
-49.13
-46.01
-40.35
-32.19
-22.14
-11.25
-0.70
8.57
16.10
21.86
26.01
28.68
29.81
29.25
26.90
22.92
17.78
12.18
6.87
2.36
-1.18
-3.92
-6.25
-8.58
-11.20
-14.19
-17.45
-20.81
-24.11
-27.26
-30.29
-33.36
-36.69
-40.38
-44.37
-48.24
-51.27
-52.66
-51.73
-48.31
-42.74
-35.81
-28.42
-21.30
-14.84
-9.06
-3.86
0.89
5.21
9.09
12.51
15.54
18.33
21.08
23.90
26.73
29.24
30.79
30.62
28.14
23.22
16.43
8.91
1.98
-3.39
-7.06
-9.75
-12.76
-17.35
-24.24
-33.38
-43.91
-54.33
-62.61
-66.42
-63.71
-53.35
-35.78
-13.13
11.38
34.64
54.83
72.00
87.72
103.94
121.75
140.54
158.12
171.47
177.99
176.35
166.87
151.26
132.07
112.05
93.75
79.21
69.53
64.48
61.98
58.50
50.28
35.40
15.30
-5.05
-19.11
-21.89
-12.68
4.40
22.22
34.07
36.42
29.71
16.72
0.06
-19.83
-44.82
-77.55
-119.24
-167.91
-218.22
-262.59
-293.45
-305.38
-296.42
-268.19
-225.07
-172.94
-117.69
-64.30
-16.02
25.89
62.13
94.76
126.11
157.34
187.41
213.28
231.28
239.22
237.77
230.36
221.43
214.20
209.22
204.47
196.93
184.31
166.11
143.36
117.65
89.99
60.61
29.45
-2.87
-34.67
-63.46
-86.82
-103.57
-114.32
-121.27
-127.28
-134.61
-143.84
-153.74
-161.95
-166.08
-164.79
-158.13
-147.15
-133.05
-116.41
-97.09
-74.87
-50.38
-25.56
-3.52
12.46
20.27
19.86
13.43
4.64
-2.79
-6.37
-5.43
-1.00
5.04
10.90
15.40
18.08
18.91
17.94
15.14
10.56
4.54
-2.19
-8.52
-13.43
-16.32
-17.31
-17.12
-16.77
-16.99
-17.95
-19.13
-19.58
-18.48
-15.48
-10.98
-5.90
-1.33
1.89
3.40
3.36
2.23
0.56
-1.21
-2.86
-4.31
-5.60
-6.76
-7.78
-8.54
-8.87
-8.63
-7.76
-6.23
-4.11
-1.49
1.48
4.51
7.25
9.29
10.28
10.03
8.61
6.29
3.45
0.48
-2.39
-5.08
-7.68
-10.39
-13.46
-17.08
-21.19
-25.41
-29.04
-31.20
-31.14
-28.47
-23.33
-16.35
-8.42
-0.42
6.99
13.49
19.00
23.54
27.14
29.83
31.61
32.57
32.90
32.85
32.67
32.58
32.62
32.74
32.82
32.81
32.80
32.99
33.59
34.66
35.97
37.01
37.18
36.10
33.76
30.66
27.52
24.90
22.92
21.07
18.52
14.42
8.34
0.43
-8.71
-18.16
-26.93
-34.04
-38.67
-40.39
-39.34
-36.29
-32.57
-29.52
-28.03
-28.21
-29.44
-30.88
-32.06
-33.20
-34.98
-38.02
-42.38
-47.48
-52.38
-56.19
-58.34
-58.46
-56.13
-50.75
-41.89
-29.67
-15.08
0.06
13.82
24.65
31.89
35.61
36.33
34.66
31.23
26.74
21.90
17.29
13.09
8.96
4.17
-1.94
-9.55
-18.06
-26.20
-32.43
-35.39
-34.29
-29.03
-20.10
-8.45
4.73
18.18
30.66
41.14
49.03
54.27
57.34
58.84
59.15
58.16
55.40
50.50
43.66
35.78
28.14
21.84
17.39
14.68
13.27
12.72
12.65
12.56
11.71
9.21
4.49
-2.23
-9.80
-16.61
-21.34
-23.61
-24.13
-24.28
-25.42
-28.32
-33.07
-39.21
-45.99
-52.52
-57.76
-60.65
-60.35
-56.69
-50.32
-42.58
-34.79
-27.72
-21.29
-15.00
-8.48
-1.97
3.77
8.06
10.86
12.96
15.47
19.08
23.42
27.22
28.94
27.65
23.60
17.98
12.31
7.61
3.95
0.60
-3.35
-8.42
-14.34
-20.21
-24.99
-28.00
-29.22
-29.19
-28.67
-28.22
-27.97
-27.68
-26.88
-25.09
-22.01
-17.55
-11.90
-5.50
1.15
7.60
13.64
19.29
24.58
29.40
33.35
35.90
36.56
35.15
31.82
27.04
21.40
15.52
10.06
5.65
2.86
2.06
3.25
5.94
9.21
11.89
12.94
11.77
8.55
4.22
0.21
-2.19
-2.32
-0.44
2.44
5.06
6.44
6.18
4.39
1.50
-1.92
-5.21
-7.48
-7.74
-5.23
0.17
7.71
16.00
23.55
29.34
33.07
34.85
34.88
33.15
29.51
23.88
16.51
7.93
-1.35
-10.96
-20.62
-29.84
-37.78
-43.46
-46.24
-46.32
-44.89
-43.70
-44.24
-47.19
-52.19
-58.11
-63.55
-67.32
-68.78
-67.78
-64.59
-59.76
-54.12
-48.58
-43.82
-39.74
-35.28
-28.70
-18.51
-4.58
11.23
25.50
34.56
36.25
31.07
21.97
12.96
7.20
5.60
6.83
8.54
8.89
7.53
5.51
4.40
5.30
8.34
12.77
17.56
22.04
26.20
30.55
35.71
41.92
48.85
55.59
61.09
64.60
66.04
65.96
65.27
64.79
64.89
65.39
65.78
65.48
64.13
61.64
58.23
54.25
50.10
46.01
42.05
38.05
33.80
29.24
24.60
20.33
16.85
14.17
11.76
8.70
4.22
-1.91
-9.17
-16.63
-23.46
-29.37
-34.65
-39.97
-46.03
-53.20
-61.29
-69.55
-76.87
-82.10
-84.42
-83.50
-79.57
-73.20
-65.20
-56.46
-47.82
-39.89
-32.69
-25.46
-16.81
-5.38
9.20
25.56
40.68
50.82
52.98
46.16
31.69
12.44
-8.27
-27.73
-44.28
-57.22
-66.46
-72.25
-75.08
-75.59
-74.51
-72.49
-70.03
-67.44
-64.95
-62.55
-59.82
-55.88
-49.57
-39.88
-26.73
-11.20
4.66
18.75
29.99
38.74
46.54
55.10
65.30
76.71
87.88
97.26
103.93
107.92
109.98
110.94
111.25
110.82
109.24
106.20
101.77
96.43
90.80
85.28
80.01
74.89
69.90
65.25
61.40
58.63
56.54
53.86
48.76
39.76
26.61
10.82
-4.74
-16.96
-23.73
-24.76
-21.42
-15.99
-10.60
-6.50
-3.99
-2.75
-2.39
-2.78
-4.14
-6.79
-10.87
-16.20
-22.32
-28.65
-34.81
-40.89
-47.31
-54.62
-63.05
-72.20
-81.09
-88.53
-93.70
-96.55
-97.89
-98.80
-100.12
-101.87
-103.28
-103.15
-100.42
-94.63
-85.98
-75.22
-63.29
-51.05
-39.05
-27.68
-17.34
-8.64
-2.27
1.48
3.21
4.52
7.47
13.61
22.91
33.64
42.96
48.29
48.56
44.62
38.65
32.96
29.04
27.12
26.49
26.09
24.92
22.12
17.09
9.55
-0.20
-11.16
-21.81
-30.52
-36.12
-38.24
-37.19
-33.74
-28.76
-23.12
-17.67
-13.29
-10.71
-10.21
-11.49
-13.74
-16.08
-17.93
-19.31
-20.67
-22.55
-25.13
-28.10
-30.85
-32.87
-34.08
-34.71
-35.04
-34.92
-33.75
-30.74
-25.49
-18.33
-10.31
-2.72
3.49
8.00
11.10
13.35
15.25
17.31
20.18
24.75
31.95
42.18
54.77
67.94
79.31
86.83
89.48
87.49
82.03
74.48
65.89
56.69
46.82
36.08
24.58
12.84
1.70
-8.06
-16.12
-22.83
-28.96
-35.25
-41.84
-48.07
-52.79
-55.04
-54.68
-52.58
-50.25
-49.09
-49.67
-51.47
-53.02
-52.43
-48.10
-39.14
-25.72
-8.94
9.32
26.78
41.28
51.16
55.61
54.77
49.61
41.56
32.11
22.45
13.36
5.31
-1.37
-6.32
-9.15
-9.61
-7.90
-4.74
-1.26
1.44
2.70
2.49
1.37
0.09
-0.72
-0.86
-0.43
0.40
1.68
3.82
7.40
12.88
20.15
28.48
36.63
43.41
48.12
50.82
52.15
52.83
53.26
53.25
52.38
50.35
47.37
44.02
40.98
38.52
36.36
33.87
30.50
26.20
21.43
16.86
12.86
9.32
5.71
1.51
-3.31
-8.13
-11.88
-13.51
-12.40
-8.59
-2.68
4.39
11.62
18.02
22.82
25.52
25.99
24.51
21.56
17.61
12.95
7.71
2.05
-3.66
-8.85
-12.99
-15.86
-17.73
-19.13
-20.46
-21.73
-22.56
-22.55
-21.69
-20.58
-20.19
-21.34
-24.23
-28.25
-32.20
-34.88
-35.55
-34.21
-31.44
-28.07
-24.80
-22.04
-19.99
-18.79
-18.57
-19.35
-20.92
-22.73
-24.08
-24.40
-23.56
-21.99
-20.37
-19.41
-19.45
-20.43
-22.03
-23.81
-25.35
-26.41
-26.94
-27.22
-27.89
-29.77
-33.49
-39.13
-46.02
-52.82
-57.90
-59.91
-58.17
-52.96
-45.33
-36.72
-28.45
-21.27
-15.17
-9.50
-3.34
4.01
12.67
21.95
30.54
36.82
39.42
37.73
32.43
25.40
19.29
16.54
18.38
24.31
32.38
40.16
45.88
48.99
50.07
50.05
49.59
48.86
47.88
47.08
47.42
50.05
55.74
64.25
74.36
84.31
92.52
98.10
101.05
102.01
101.86
101.46
101.45
102.24
103.97
106.38
108.82
110.40
110.22
107.77
103.14
97.00
90.30
83.86
78.12
73.16
68.88
65.20
62.12
59.51
56.86
53.36
48.10
40.54
30.91
20.18
9.74
0.81
-6.02
-10.96
-14.79
-18.47
-22.69
-27.66
-33.03
-38.16
-42.41
-45.49
-47.70
-49.88
-53.08
-58.14
-65.12
-73.18
-80.74
-86.06
-87.95
-86.14
-81.37
-75.01
-68.65
-63.71
-61.28
-61.78
-64.79
-68.81
-71.56
-70.64
-64.58
-53.70
-40.13
-27.03
-17.08
-11.24
-8.39
-6.16
-2.31
3.97
11.76
19.22
24.67
27.53
28.39
28.60
29.59
32.46
38.03
46.75
58.54
72.19
84.94
92.69
91.04
76.95
50.12
13.49
-27.61
-66.98
-99.43
-121.79
-133.23
-134.61
-127.75
-114.69
-97.47
-78.07
-58.33
-39.84
-23.71
-10.57
-0.77
5.40
7.64
5.81
0.28
-7.89
-17.05
-25.50
-32.09
-36.57
-39.51
-41.84
-44.34
-47.33
-50.70
-54.19
-57.71
-61.38
-65.28
-69.11
-71.93
-72.42
-69.43
-62.69
-53.12
-42.52
-32.69
-24.50
-17.60
-10.94
-3.82
3.14
8.10
9.06
5.36
-1.63
-8.98
-13.91
-15.28
-14.26
-13.39
-14.86
-19.01
-24.08
-27.38
-26.97
-22.96
-17.47
-13.35
-12.55
-15.07
-19.16
-22.57
-23.98
-23.77
-23.73
-25.77
-30.59
-36.92
-42.01
-42.79
-37.31
-25.42
-8.71
10.40
29.50
46.83
61.35
72.51
80.06
83.93
84.23
81.21
75.13
66.33
55.30
42.75
29.70
17.28
6.42
-2.52
-9.73
-15.79
-21.22
-26.19
-30.47
-33.61
-35.32
-35.58
-34.63
-32.73
-29.95
-26.18
-21.22
-15.11
-8.15
-0.97
5.63
10.87
14.22
15.51
14.97
13.18
10.91
8.85
7.33
6.25
5.15
3.47
0.87
-2.62
-6.66
-10.77
-14.63
-18.10
-21.25
-24.30
-27.48
-30.97
-34.80
-38.74
-42.24
-44.45
-44.43
-41.46
-35.33
-26.39
-15.54
-3.85
7.63
18.09
26.99
34.03
39.08
42.17
43.56
43.72
43.25
42.68
42.31
42.09
41.66
40.55
38.38
35.09
30.96
26.55
22.48
19.20
16.82
15.11
13.56
11.63
8.98
5.58
1.75
-1.95
-4.90
-6.58
-6.69
-5.13
-1.99
2.45
7.79
13.53
19.16
24.17
28.18
30.96
32.52
32.98
32.58
31.53
29.97
27.92
25.30
22.05
18.21
13.92
9.43
4.96
0.63
-3.53
-7.58
-11.64
-15.77
-20.10
-24.67
-29.49
-34.31
-38.64
-41.74
-42.85
-41.40
-37.25
-30.73
-22.53
-13.54
-4.61
3.50
10.24
15.21
18.17
19.13
18.38
16.42
13.93
11.46
9.32
7.40
5.36
2.80
-0.40
-4.02
-7.58
-10.64
-13.04
-14.90
-16.38
-17.41
-17.50
-16.00
-12.55
-7.48
-1.83
3.11
6.48
8.31
9.34
10.48
12.07
13.64
14.39
13.87
12.67
12.30
14.30
19.20
25.80
31.57
33.82
31.05
23.75
14.09
4.80
-2.13
-6.17
-8.02
-8.77
-9.10
-8.93
-7.81
-5.52
-2.55
0.07
1.28
0.71
-1.12
-3.05
-3.97
-3.27
-0.85
3.26
9.45
18.65
31.92
49.82
71.78
96.08
120.34
142.25
160.09
172.92
180.23
181.71
177.14
166.66
151.11
132.18
112.21
93.47
77.54
64.80
54.47
45.02
34.86
23.02
9.39
-5.35
-20.16
-34.03
-46.29
-56.66
-65.14
-71.84
-76.94
-80.66
-83.34
-85.37
-87.12
-88.86
-90.76
-92.98
-95.71
-99.16
-103.43
-108.32
-113.17
-116.91
-118.34
-116.46
-110.74
-101.23
-88.53
-73.56
-57.38
-41.04
-25.43
-11.27
1.04
11.38
19.93
27.04
33.09
38.31
42.70
46.07
48.11
48.59
47.48
45.02
41.66
37.95
34.40
31.35
28.94
27.05
25.49
24.02
22.52
20.93
19.25
17.41
15.23
12.50
9.13
5.36
1.79
-0.73
-1.45
-0.01
3.35
7.93
12.85
17.39
21.20
24.25
26.62
28.31
29.15
28.94
27.53
25.07
21.91
18.52
15.33
12.51
10.02
7.67
5.28
2.81
0.44
-1.58
-3.01
-3.81
-4.17
-4.42
-4.91
-5.89
-7.48
-9.64
-12.23
-15.00
-17.54
-19.32
-19.78
-18.57
-15.66
-11.43
-6.57
-1.75
2.59
6.37
9.77
13.01
16.15
19.02
21.31
22.79
23.44
23.44
23.04
22.47
21.80
21.07
20.34
19.76
19.56
19.92
20.88
22.34
24.19
26.39
29.08
32.41
36.37
40.63
44.54
47.31
48.34
47.48
45.14
42.20
39.75
38.86
40.41
44.97
52.69
63.18
75.51
88.24
99.81
108.85
114.53
116.60
115.28
110.92
103.80
93.98
81.38
65.95
47.88
27.60
5.85
-16.51
-38.63
-59.85
-79.81
-98.34
-115.44
-130.99
-144.79
-156.49
-165.83
-172.69
-177.14
-179.26
-179.01
-176.20
-170.67
-162.50
-152.08
-139.99
-126.61
-112.01
-95.91
-78.04
-58.52
-38.17
-18.45
-1.01
12.75
22.21
27.63
30.10
31.20
32.57
35.50
40.59
47.64
55.78
63.80
70.64
75.65
78.71
80.02
79.90
78.55
76.12
72.72
68.54
63.91
59.18
54.71
50.85
48.03
46.77
47.52
50.47
55.36
61.41
67.51
72.64
76.15
77.98
78.52
78.37
78.06
77.81
77.50
76.67
74.71
71.00
65.15
57.02
46.90
35.36
23.08
10.59
-1.98
-14.95
-29.04
-44.97
-63.12
-83.10
-103.69
-122.95
-138.76
-149.47
-154.54
-154.78
-152.02
-148.33
-145.06
-142.20
-138.45
-131.92
-121.19
-106.17
-88.34
-70.15
-54.09
-41.84
-33.89
-29.70
-28.23
-28.26
-28.69
-28.64
-27.55
-25.30
-22.27
-19.07
-16.25
-13.80
-10.99
-6.60
0.54
11.00
24.36
39.34
54.31
67.86
79.21
88.29
95.50
101.31
105.86
108.84
109.69
107.89
103.41
96.74
88.64
79.79
70.51
60.83
50.78
40.75
31.41
23.29
16.25
9.24
0.65
-10.81
-25.17
-40.86
-55.26
-65.91
-71.64
-73.10
-72.30
-71.50
-72.08
-73.93
-75.75
-75.83
-72.90
-66.61
-57.43
-46.32
-34.23
-22.05
-10.60
-0.86
6.19
9.83
10.02
7.60
4.01
0.75
-1.28
-2.07
-2.31
-2.83
-4.16
-6.26
-8.73
-11.22
-13.64
-16.18
-18.98
-21.94
-24.61
-26.49
-27.23
-26.83
-25.58
-24.00
-22.81
-22.93
-25.43
-31.07
-39.89
-50.74
-61.47
-69.56
-73.09
-71.53
-65.71
-57.35
-48.16
-39.15
-30.57
-22.29
-14.25
-6.68
-0.01
5.58
10.31
14.82
19.83
25.65
31.91
37.56
41.23
41.80
38.94
33.35
26.50
20.02
14.94
11.39
8.73
6.19
3.51
1.21
0.24
1.30
4.32
8.45
12.53
15.85
18.54
21.42
25.52
31.40
38.89
47.31
55.89
64.34
73.03
82.91
95.09
110.39
128.93
149.97
172.07
193.41
212.25
227.37
238.16
244.63
247.29
246.89
244.25
240.01
234.28
226.55
215.73
200.62
180.33
154.82
124.90
91.97
57.51
22.76
-11.32
-43.96
-74.23
-101.10
-123.76
-141.96
-156.54
-169.77
-185.12
-206.21
-234.80
-268.71
-301.07
-321.83
-321.53
-295.49
-246.25
-182.71
-116.38
-56.90
-9.28
25.90
50.11
64.58
69.74
66.53
57.99
49.34
46.01
50.65
61.45
72.99
79.40
77.58
68.89
58.10
50.35
48.02
49.27
49.08
42.11
25.62
0.80
-28.36
-57.77
-85.83
-114.20
-145.90
-182.20
-220.16
-252.87
-272.52
-274.57
-260.49
-237.21
-213.53
-195.76
-185.17
-178.52
-171.30
-161.21
-149.99
-142.41
-143.38
-155.03
-175.17
-198.13
-217.25
-227.54
-227.33
-218.26
-203.73
-186.68
-168.46
-148.58
-125.91
-100.00
-71.96
-44.10
-18.88
2.16
18.72
31.28
40.31
45.55
46.05
40.83
29.94
15.46
2.01
-3.91
4.14
29.95
72.15
123.46
172.38
206.86
218.71
206.62
176.67
139.90
108.45
91.63
93.34
111.51
139.12
166.49
184.08
185.06
166.92
131.68
84.50
31.62
-21.59
-71.44
-115.59
-152.18
-179.47
-196.15
-202.29
-199.99
-192.86
-184.43
-176.29
-167.03
-152.86
-129.73
-95.73
-52.71
-6.09
36.99
70.21
90.29
97.76
96.14
90.06
83.19
77.13
71.40
64.48
55.35
44.45
33.78
25.95
22.77
24.17
28.09
31.36
31.11
25.98
16.51
4.64
-7.34
-17.70
-25.82
-31.97
-36.77
-40.66
-43.62
-45.16
-44.67
-41.70
-36.25
-28.78
-19.99
-10.50
-0.57
10.03
21.83
35.25
50.18
65.93
81.43
95.56
107.51
116.83
123.29
126.70
126.71
122.77
114.09
99.84
79.36
52.52
20.28
-15.15
-50.44
-81.87
-106.28
-122.00
-129.22
-129.70
-126.03
-120.67
-115.09
-109.44
-102.64
-92.84
-78.36
-58.32
-33.09
-4.13
26.58
57.08
85.89
111.92
134.20
151.51
162.41
165.55
160.26
147.02
127.54
104.58
81.30
60.55
44.30
33.22
26.69
23.23
21.17
19.30
17.25
15.29
13.81
12.82
11.80
9.92
6.46
1.19
-5.67
-13.60
-21.94
-30.04
-37.07
-41.99
-43.62
-41.06
-33.94
-22.78
-8.84
6.17
20.59
33.18
43.33
51.01
56.54
60.20
62.09
62.02
59.77
55.32
49.08
41.74
33.96
26.15
18.46
11.00
4.20
-1.23
-4.60
-5.96
-6.56
-8.78
-15.25
-27.70
-46.08
-68.49
-91.85
-113.16
-130.31
-142.34
-149.10
-150.70
-147.36
-139.56
-128.55
-116.31
-105.14
-96.66
-91.08
-87.03
-82.37
-75.55
-66.69
-57.85
-52.18
-52.59
-60.24
-74.01
-90.84
-106.93
-119.11
-125.87
-127.52
-125.63
-122.12
-118.42
-115.37
-113.55
-113.75
-116.95
-123.57
-132.37
-139.78
-140.85
-131.48
-111.16
-84.36
-59.40
-44.99
-46.14
-61.61
-84.40
-104.94
-115.27
-111.93
-96.26
-72.48
-45.07
-16.72
11.83
41.00
71.21
102.28
133.77
165.93
200.25
239.32
285.40
338.53
395.01
447.48
486.83
505.47
500.14
473.20
431.42
383.14
335.16
291.03
251.21
214.71
180.83
150.04
123.56
102.29
85.95
72.98
61.28
49.09
35.68
21.54
7.79
-4.44
-14.54
-22.60
-29.21
-35.05
-40.47
-45.26
-48.76
-50.17
-49.03
-45.48
-40.30
-34.52
-29.07
-24.32
-19.99
-15.45
-10.08
-3.64
3.67
11.34
18.94
26.36
33.90
41.99
50.91
60.43
69.78
78.10
85.02
91.16
98.09
107.55
120.32
135.41
149.86
159.51
160.30
149.33
125.59
89.73
43.76
-9.17
-65.10
-119.38
-167.25
-204.59
-229.02
-240.56
-241.97
-237.97
-233.88
-233.82
-239.11
-247.41
-253.10
-249.31
-230.37
-194.34
-143.95
-85.77
-27.77
23.48
64.44
94.47
114.42
125.04
126.30
118.10
101.45
79.17
55.61
34.89
19.24
8.39
0.25
-7.39
-15.22
-21.98
-25.30
-23.19
-15.33
-3.38
9.86
21.57
29.96
34.63
36.24
35.86
34.36
32.16
29.33
25.86
21.86
17.55
13.05
8.31
3.04
-2.97
-9.56
-15.89
-20.60
-22.21
-19.73
-13.12
-3.35
7.94
19.04
28.69
36.31
41.81
45.33
46.99
46.82
44.84
41.27
36.56
31.25
25.83
20.48
15.12
9.53
3.61
-2.46
-8.18
-12.96
-16.33
-18.20
-18.89
-19.02
-19.27
-20.24
-22.29
-25.47
-29.46
-33.53
-36.58
-37.36
-34.81
-28.51
-18.81
-6.88
5.73
17.53
27.49
35.25
40.93
44.87
47.32
48.32
47.77
45.59
41.99
37.40
32.50
27.88
23.96
20.79
18.17
15.77
13.35
10.90
8.53
6.47
4.84
3.63
2.68
1.69
0.30
-1.76
-4.50
-7.49
-9.76
-10.03
-7.03
-0.06
10.66
23.98
38.20
51.83
64.08
75.10
85.57
95.94
105.76
113.54
117.26
115.35
107.52
94.98
79.87
64.13
48.53
32.34
14.00
-7.82
-33.11
-60.22
-86.15
-107.52
-121.48
-126.33
-121.81
-109.12
-90.71
-70.32
-52.72
-43.21
-46.30
-63.99
-94.16
-130.31
-163.33
-184.76
-190.12
-180.68
-162.46
-143.06
-128.22
-119.92
-117.16
-118.49
-124.26
-136.88
-158.84
-189.82
-225.17
-256.70
-275.82
-277.07
-260.13
-229.48
-191.97
-153.76
-118.15
-85.17
-52.60
-17.91
20.00
59.98
98.86
132.61
157.85
173.10
179.21
178.78
175.02
170.40
166.08
161.95
157.55
152.91
149.04
147.56
149.87
156.39
166.25
177.71
188.91
198.57
206.30
212.56
218.13
223.56
228.86
233.39
236.17
236.15
232.58
225.14
213.94
199.44
182.35
163.55
143.87
123.80
103.31
81.75
58.27
32.27
3.87
-25.93
-55.60
-83.62
-108.92
-131.06
-149.91
-165.26
-176.56
-183.00
-183.95
-179.42
-170.19
-157.70
-143.54
-129.01
-114.83
-101.15
-87.81
-74.64
-61.65
-49.08
-37.31
-26.70
-17.45
-9.57
-2.97
2.51
7.01
10.63
13.39
15.33
16.45
16.74
16.26
15.09
13.39
11.32
9.07
6.72
4.25
1.52
-1.64
-5.44
-10.05
-15.60
-22.08
-29.27
-36.57
-43.05
-47.58
-49.16
-47.29
-42.16
-34.61
-25.93
-17.44
-10.20
-4.83
-1.52
-0.12
-0.27
-1.63
-3.88
-6.82
-10.32
-14.31
-18.62
-23.06
-27.35
-31.25
-34.56
-37.20
-39.20
-40.65
-41.67
-42.45
-43.18
-43.99
-44.85
-45.57
-45.81
-45.28
-43.94
-42.08
-40.28
-39.15
-38.98
-39.48
-39.89
-39.15
-36.46
-31.48
-24.59
-16.62
-8.63
-1.49
4.18
8.17
10.50
11.35
11.02
9.84
8.16
6.28
4.38
2.45
0.43
-1.66
-3.62
-5.06
-5.57
-4.89
-3.11
-0.66
1.89
4.08
5.72
6.95
8.06
9.26
10.52
11.45
11.44
9.77
5.81
-0.80
-9.99
-21.14
-33.11
-44.39
-53.39
-58.86
-60.17
-57.44
-51.39
-43.06
-33.47
-23.42
-13.45
-3.95
4.78
12.48
19.03
24.47
29.07
33.14
36.86
40.27
43.20
45.41
46.80
47.47
47.68
47.71
47.75
47.82
47.84
47.68
47.26
46.58
45.66
44.44
42.84
40.68
37.86
34.31
30.16
25.66
21.20
17.26
14.30
12.67
12.55
13.82
16.15
19.09
22.17
25.05
27.56
29.65
31.33
32.53
33.10
32.87
31.74
29.74
27.03
23.78
20.14
16.21
12.06
7.84
3.78
0.13
-2.94
-5.32
-7.06
-8.22
-8.86
-9.05
-8.97
-8.92
-9.32
-10.61
-13.05
-16.71
-21.37
-26.64
-32.01
-36.86
-40.55
-42.33
-41.50
-37.63
-30.70
-21.30
-10.51
0.31
9.89
17.40
22.57
25.71
27.52
28.76
30.08
31.81
33.97
36.42
38.94
41.30
43.29
44.65
45.07
44.21
41.83
37.85
32.42
25.91
18.73
11.30
3.90
-3.20
-9.69
-15.15
-19.02
-20.78
-20.18
-17.41
-13.19
-8.62
-4.80
-2.44
-1.63
-1.74
-1.85
-1.10
0.94
4.17
8.08
12.02
15.48
18.15
19.88
20.63
20.34
19.05
16.89
14.19
11.37
8.83
6.76
5.12
3.63
1.96
-0.16
-2.77
-5.75
-8.84
-11.73
-14.13
-15.89
-16.99
-17.58
-17.99
-18.53
-19.40
-20.56
-21.76
-22.57
-22.65
-21.85
-20.34
-18.50
-16.81
-15.70
-15.46
-16.21
-17.83
-19.99
-22.16
-23.64
-23.74
-21.95
-18.13
-12.58
-5.99
0.76
6.85
11.67
15.00
16.93
17.71
17.64
16.94
15.67
13.78
11.20
8.02
4.52
1.13
-1.67
-3.55
-4.40
-4.38
-3.69
-2.46
-0.68
1.76
4.89
8.53
12.19
15.22
17.04
17.28
15.94
13.35
10.06
6.63
3.51
0.98
-0.83
-1.95
-2.50
-2.76
-3.11
-4.09
-6.18
-9.62
-14.14
-18.90
-22.66
-24.23
-22.87
-18.62
-12.32
-5.23
1.41
6.81
10.82
13.73
16.03
18.11
20.03
21.68
22.85
23.48
23.71
23.95
24.67
26.34
29.25
33.41
38.51
44.05
49.49
54.54
59.34
64.41
70.39
77.73
86.36
95.79
105.35
114.50
123.00
130.79
137.82
143.91
148.96
153.14
156.96
160.89
164.81
167.73
167.94
163.85
154.72
141.11
124.58
106.94
89.45
72.65
56.62
41.44
27.42
14.80
3.26
-8.46
-22.49
-41.41
-67.63
-102.68
-146.50
-196.70
-248.15
-293.58
-325.37
-337.94
-329.78
-303.98
-266.70
-224.58
-182.28
-141.62
-102.61
-65.33
-31.34
-3.69
14.51
21.86
19.57
10.95
-0.07
-10.53
-19.18
-26.28
-32.65
-38.76
-44.37
-48.76
-51.29
-51.91
-51.51
-51.64
-53.96
-59.67
-68.89
-80.54
-92.58
-102.57
-108.47
-109.32
-105.41
-98.20
-89.72
-81.87
-75.85
-71.84
-68.96
-65.59
-59.89
-50.51
-37.17
-20.94
-4.02
10.91
21.66
27.16
27.72
24.63
19.51
13.60
7.56
1.56
-4.38
-10.11
-15.30
-19.70
-23.30
-26.46
-29.73
-33.56
-38.00
-42.62
-46.74
-49.80
-51.65
-52.65
-53.43
-54.54
-56.12
-57.73
-58.48
-57.20
-52.97
-45.33
-34.64
-21.95
-8.63
4.09
15.59
25.82
35.02
43.21
50.03
54.88
57.43
58.04
57.64
57.27
57.43
57.77
57.36
55.38
51.56
46.27
40.24
34.07
28.18
22.81
18.19
14.40
11.12
7.50
2.34
-5.28
-15.38
-26.97
-38.44
-48.34
-56.06
-61.88
-66.52
-70.57
-74.16
-77.00
-78.71
-78.98
-77.56
-74.08
-67.90
-58.40
-45.50
-30.12
-14.29
-0.52
9.18
14.19
15.55
15.54
16.63
20.45
27.16
35.51
43.55
49.42
52.07
51.41
48.06
42.86
36.57
29.72
22.66
15.79
9.63
4.74
1.47
-0.24
-0.98
-1.67
-3.13
-5.76
-9.34
-13.19
-16.59
-19.19
-21.21
-23.21
-25.62
-28.30
-30.32
-30.18
-26.36
-17.97
-5.23
10.52
27.19
42.71
55.67
65.76
73.63
80.33
86.73
93.03
98.77
103.28
106.24
107.98
109.26
110.80
112.71
114.45
115.14
113.95
110.32
103.79
93.67
79.00
58.86
33.06
2.59
-30.41
-63.34
-93.98
-121.18
-144.76
-164.79
-180.61
-190.34
-191.05
-180.05
-156.34
-121.73
-80.81
-39.56
-3.40
24.71
44.83
59.26
70.78
81.07
90.13
96.94
100.71
101.85
102.01
103.17
106.50
111.66
116.96
120.28
120.24
116.95
112.08
108.11
107.20
110.25
116.51
123.94
130.18
133.47
133.10
129.31
122.73
113.90
103.10
90.57
76.99
63.69
52.46
45.02
42.19
43.19
45.44
45.14
38.39
22.55
-2.78
-35.62
-72.25
-108.58
-141.23
-168.20
-188.69
-202.56
-209.89
-210.86
-206.05
-196.64
-184.36
-171.19
-158.80
-148.19
-139.62
-132.63
-126.31
-119.48
-110.98
-100.01
-86.41
-70.83
-54.66
-39.53
-26.86
-17.43
-11.40
-8.50
-8.33
-10.46
-14.37
-19.22
-23.82
-26.85
-27.29
-24.75
-19.68
-13.10
-6.29
-0.34
4.11
6.97
8.39
8.44
6.71
2.35
-5.37
-16.30
-28.80
-39.94
-46.77
-47.76
-43.71
-37.27
-31.29
-26.97
-23.15
-17.22
-7.03
7.58
24.56
40.96
54.74
65.75
75.36
84.96
94.76
103.35
108.77
109.80
106.85
101.88
97.30
94.81
94.65
95.64
95.82
93.23
86.53
75.22
59.54
40.24
18.30
-5.17
-28.88
-51.30
-70.62
-85.09
-93.48
-95.69
-92.81
-86.44
-77.50
-65.18
-46.98
-20.03
16.78
61.16
107.28
147.29
174.02
183.33
175.08
152.55
120.95
85.77
51.84
23.14
2.75
-7.21
-5.99
5.25
23.40
43.91
61.91
73.44
76.64
72.07
62.32
50.73
40.08
31.59
24.81
18.27
10.35
-0.07
-13.35
-29.40
-47.89
-68.31
-89.81
-111.10
-130.50
-146.21
-156.69
-160.82
-157.98
-148.03
-131.29
-108.76
-82.15
-53.86
-26.59
-2.73
16.05
29.11
36.70
39.76
39.50
37.19
33.87
30.28
26.86
23.71
20.83
18.24
16.06
14.41
13.29
12.50
11.69
10.65
9.52
8.71
8.60
9.21
10.04
10.30
9.33
7.06
4.08
1.27
-0.67
-1.67
-2.24
-3.17
-5.08
-8.15
-12.21
-17.01
-22.43
-28.37
-34.51
-40.08
-43.93
-44.89
-42.37
-36.65
-28.82
-20.40
-12.67
-6.29
-1.24
2.86
6.36
9.25
11.25
11.99
11.29
9.30
6.51
3.53
1.00
-0.61
-1.08
-0.43
1.04
2.91
4.69
5.98
6.55
6.39
5.62
4.40
2.85
1.00
-1.19
-3.79
-6.78
-10.06
-13.42
-16.57
-19.27
-21.35
-22.88
-24.18
-25.74
-28.08
-31.42
-35.55
-39.65
-42.54
-42.97
-40.12
-33.92
-25.03
-14.72
-4.38
4.83
12.23
17.61
21.11
23.07
23.84
23.74
22.97
21.75
20.17
18.39
16.53
14.76
13.25
12.08
11.28
10.72
10.25
9.73
9.10
8.34
7.49
6.51
5.29
3.71
1.67
-0.76
-3.37
-5.86
-8.02
-9.78
-11.30
-12.83
-14.63
-16.74
-19.08
-21.53
-24.05
-26.76
-29.82
-33.14
-36.21
-38.09
-37.72
-34.35
-28.02
-19.55
-10.34
-1.83
4.91
9.43
11.80
12.41
11.75
10.33
8.72
7.56
7.44
8.71
11.30
14.74
18.25
21.15
23.06
24.07
24.59
25.02
25.50
25.67
24.87
22.40
17.93
11.72
4.57
-2.54
-8.79
-13.88
-17.95
-21.43
-24.71
-27.96
-31.07
-33.82
-35.95
-37.30
-37.73
-37.13
-35.51
-33.09
-30.38
-28.12
-26.90
-26.79
-27.21
-26.97
-24.83
-19.99
-12.52
-3.30
6.29
14.92
21.66
26.12
28.40
28.82
27.89
26.12
23.97
21.72
19.43
16.92
13.99
10.56
6.76
2.89
-0.64
-3.37
-4.62
-3.51
0.91
9.21
21.01
34.76
47.92
57.85
62.75
62.32
57.75
51.01
43.85
37.12
30.64
23.64
15.45
5.95
-4.30
-14.39
-23.46
-31.06
-37.17
-42.06
-46.06
-49.48
-52.46
-55.00
-56.96
-57.98
-57.59
-55.24
-50.58
-43.60
-34.73
-24.77
-14.66
-5.27
2.81
9.26
14.02
17.20
19.04
19.81
19.82
19.43
19.03
18.95
19.41
20.47
22.05
23.90
25.81
27.63
29.34
30.99
32.64
34.19
35.40
35.87
35.23
33.26
29.97
25.65
20.78
15.87
11.32
7.28
3.68
0.34
-2.95
-6.29
-9.69
-13.03
-16.19
-19.04
-21.58
-23.94
-26.49
-29.65
-33.79
-38.90
-44.41
-49.19
-51.78
-50.91
-45.95
-37.17
-25.67
-12.98
-0.61
10.35
19.38
26.38
31.45
34.79
36.62
37.24
37.09
36.62
36.24
36.14
36.25
36.34
36.13
35.40
34.06
32.22
30.04
27.87
26.01
24.72
24.11
24.05
24.22
24.14
23.40
21.75
19.23
16.08
12.71
9.56
6.89
4.75
2.80
0.45
-3.06
-8.38
-15.85
-25.32
-36.18
-47.50
-58.31
-67.81
-75.55
-81.47
-85.80
-88.85
-90.76
-91.33
-90.01
-86.01
-78.77
-68.13
-54.66
-39.51
-24.11
-9.76
2.66
12.80
20.71
26.60
30.70
33.18
34.28
34.36
33.90
33.38
33.10
33.17
33.39
33.51
33.29
32.71
31.93
31.22
30.81
30.72
30.74
30.50
29.58
27.71
24.83
21.20
17.30
13.71
10.85
8.82
7.31
5.71
3.40
0.10
-3.96
-8.08
-11.47
-13.72
-15.01
-16.12
-18.02
-21.44
-26.53
-32.86
-39.62
-45.87
-50.71
-53.34
-53.18
-50.21
-45.32
-40.28
-37.09
-36.78
-38.47
-39.32
-35.89
-26.10
-10.94
5.40
17.12
19.30
9.95
-9.61
-35.77
-64.25
-91.15
-112.99
-126.73
-129.99
-122.17
-105.30
-83.76
-62.64
-45.38
-32.42
-21.46
-9.36
5.79
23.52
41.55
57.28
69.15
77.01
81.54
83.52
83.54
82.12
80.00
78.03
76.93
76.95
77.95
79.58
81.49
83.26
84.16
83.08
79.07
71.89
62.55
53.03
45.54
41.46
40.75
42.07
43.53
43.61
41.71
38.15
33.78
29.35
25.32
21.73
18.43
15.24
12.18
9.41
7.28
6.20
6.45
8.07
10.72
13.70
16.20
17.47
16.93
14.40
10.02
4.19
-2.43
-9.15
-15.38
-20.82
-25.51
-29.79
-34.04
-38.42
-42.80
-46.80
-49.98
-52.15
-53.41
-54.10
-54.61
-55.29
-56.37
-58.00
-60.17
-62.64
-64.77
-65.52
-63.67
-58.12
-48.32
-34.57
-17.93
-0.03
17.35
32.62
44.72
53.19
58.17
60.26
60.26
58.93
56.85
54.36
51.57
48.54
45.34
42.12
39.08
36.43
34.38
33.14
32.81
33.36
34.47
35.59
35.96
34.91
32.08
27.50
21.63
15.08
8.40
1.96
-4.05
-9.52
-14.34
-18.39
-21.62
-24.16
-26.30
-28.38
-30.66
-33.27
-36.22
-39.57
-43.41
-47.75
-52.24
-55.99
-57.63
-55.70
-49.34
-38.73
-25.23
-10.86
2.34
13.13
21.20
27.03
31.35
34.64
36.98
38.18
38.15
37.05
35.31
33.36
31.45
29.52
27.44
25.22
23.14
21.68
21.24
21.90
23.31
24.80
25.67
25.45
24.04
21.66
18.65
15.36
12.00
8.67
5.44
2.37
-0.56
-3.42
-6.41
-9.74
-13.52
-17.67
-21.93
-25.94
-29.49
-32.66
-35.84
-39.50
-43.96
-49.26
-55.03
-60.71
-65.61
-69.07
-70.47
-69.21
-64.85
-57.18
-46.39
-33.18
-18.70
-4.25
8.83
19.59
27.60
32.96
36.30
38.49
40.39
42.47
44.80
46.94
48.30
48.43
47.27
45.18
42.77
40.58
38.86
37.48
36.10
34.36
32.09
29.36
26.40
23.44
20.58
17.80
15.05
12.27
9.50
6.79
4.17
1.60
-1.09
-4.04
-7.43
-11.28
-15.48
-19.80
-23.99
-27.82
-31.16
-34.06
-36.58
-38.88
-41.16
-43.71
-46.89
-50.99
-56.01
-61.44
-66.22
-68.98
-68.47
-63.97
-55.54
-43.94
-30.31
-15.89
-1.73
11.30
22.54
31.51
37.99
42.06
44.18
45.02
45.26
45.37
45.53
45.62
45.40
44.73
43.63
42.32
41.08
40.12
39.49
39.08
38.69
38.04
36.93
35.20
32.80
29.79
26.33
22.70
19.14
15.74
12.43
8.92
4.99
0.56
-4.16
-8.74
-12.82
-16.26
-19.23
-22.15
-25.55
-29.91
-35.51
-42.37
-50.17
-58.08
-64.86
-69.00
-69.08
-64.32
-54.86
-41.79
-26.89
-12.07
1.09
11.65
19.28
24.19
26.81
27.72
27.46
26.55
25.39
24.30
23.44
22.84
22.41
22.05
21.70
21.33
20.97
20.66
20.40
20.17
19.85
19.27
18.17
16.25
13.33
9.48
5.00
0.43
-3.73
-7.23
-10.18
-12.97
-16.04
-19.57
-23.34
-26.85
-29.57
-31.26
-32.16
-32.90
-34.31
-37.05
-41.39
-46.99
-52.89
-57.69
-59.85
-58.16
-52.15
-42.35
-30.14
-17.40
-5.83
3.52
10.37
15.10
18.19
19.91
20.13
18.58
15.11
10.04
4.10
-1.77
-6.83
-10.88
-14.20
-17.34
-20.71
-24.31
-27.72
-30.49
-32.48
-34.00
-35.58
-37.47
-39.15
-39.35
-36.58
-29.89
-19.33
-5.87
9.13
24.18
37.73
47.75
51.68
47.05
32.63
9.63
-18.06
-44.87
-65.59
-77.21
-79.88
-76.39
-70.70
-66.26
-64.83
-66.22
-68.81
-70.40
-69.03
-63.43
-53.20
-38.53
-20.06
1.14
23.41
44.43
61.61
72.73
76.84
74.54
67.67
58.22
47.38
35.19
20.99
4.31
-14.64
-35.04
-56.03
-76.96
-97.13
-114.95
-127.55
-131.25
-123.13
-102.76
-73.02
-39.30
-7.50
18.16
36.23
47.76
54.84
59.20
61.52
61.77
60.00
56.87
53.49
50.82
48.91
46.76
42.85
36.13
26.72
16.06
6.29
-0.80
-4.51
-5.45
-4.87
-3.63
-1.43
3.16
12.03
26.35
45.73
68.11
90.39
109.60
123.76
132.19
135.18
133.34
127.14
116.81
102.82
86.33
69.25
53.67
41.00
31.25
23.04
14.48
4.27
-7.32
-18.44
-26.54
-29.67
-27.41
-21.16
-13.80
-8.78
-9.20
-16.78
-31.17
-49.69
-68.09
-81.81
-87.71
-85.17
-76.10
-63.98
-52.38
-43.88
-39.72
-39.95
-43.63
-48.87
-52.87
-52.39
-44.83
-29.47
-8.05
15.87
38.46
57.24
71.68
82.67
91.42
98.63
104.42
108.77
112.15
115.42
119.49
124.61
130.08
134.28
135.34
131.92
123.95
112.88
101.47
92.87
89.53
92.32
100.05
109.83
118.00
121.26
117.53
106.34
88.57
66.05
41.05
15.77
-8.21
-30.31
-50.95
-71.16
-91.76
-112.63
-132.45
-149.05
-160.26
-164.78
-162.63
-155.00
-143.50
-129.38
-112.97
-93.88
-71.70
-46.71
-20.29
5.40
28.14
46.40
59.69
68.22
72.32
72.09
67.41
58.29
45.41
30.19
14.34
-0.69
-14.12
-25.84
-36.00
-44.52
-51.05
-55.20
-56.88
-56.54
-55.02
-53.27
-52.18
-52.54
-55.14
-60.65
-69.34
-80.73
-93.37
-105.18
-113.84
-117.57
-115.35
-107.07
-93.26
-74.82
-53.00
-29.33
-5.63
16.30
35.06
50.07
61.57
70.27
76.88
81.65
84.30
84.17
80.70
73.71
63.59
51.22
37.68
23.99
10.81
-1.62
-13.48
-25.11
-36.90
-48.87
-60.61
-71.27
-79.74
-85.08
-86.82
-85.17
-80.88
-74.99
-68.45
-61.92
-55.77
-50.32
-46.15
-44.09
-44.89
-48.54
-53.80
-58.26
-59.13
-54.57
-44.64
-31.43
-18.22
-8.04
-2.58
-1.88
-5.08
-11.26
-20.18
-32.01
-46.70
-63.18
-79.18
-91.83
-98.71
-98.74
-92.65
-82.53
-70.99
-60.09
-50.71
-42.45
-34.09
-24.38
-12.70
0.66
14.69
28.11
39.88
49.42
56.49
60.99
62.74
61.56
57.44
50.86
42.83
34.82
28.45
25.12
25.70
30.32
38.45
49.10
61.12
73.44
85.22
95.84
104.79
111.54
115.49
116.10
113.04
106.37
96.70
85.11
72.99
61.64
52.01
44.50
39.02
35.21
32.66
31.00
29.88
28.93
27.76
26.07
23.89
21.61
19.90
19.40
20.41
22.70
25.65
28.45
30.41
31.10
30.35
28.26
25.21
21.79
18.81
17.17
17.53
20.12
24.58
30.01
35.29
39.39
41.64
41.91
40.52
38.01
34.85
31.28
27.21
22.41
16.72
10.30
3.58
-2.74
-8.05
-11.95
-14.40
-15.67
-16.16
-16.30
-16.40
-16.70
-17.30
-18.18
-19.27
-20.46
-21.74
-23.15
-24.84
-26.97
-29.68
-32.98
-36.68
-40.32
-43.15
-44.27
-42.83
-38.29
-30.61
-20.37
-8.61
3.40
14.54
24.02
31.48
36.90
40.49
42.49
43.08
42.41
40.56
37.71
34.08
30.00
25.82
21.85
18.33
15.38
13.07
11.42
10.41
9.94
9.85
9.82
9.42
8.25
6.05
2.84
-1.04
-5.02
-8.62
-11.63
-14.26
-17.06
-20.63
-25.38
-31.22
-37.54
-43.29
-47.28
-48.43
-46.05
-40.05
-30.92
-19.67
-7.53
4.33
14.98
23.91
30.89
35.92
39.09
40.54
40.46
39.13
36.89
34.09
31.02
27.91
24.88
22.05
19.54
17.48
15.99
15.11
14.72
14.62
14.55
14.22
13.37
11.85
9.59
6.64
3.19
-0.47
-4.03
-7.23
-10.03
-12.55
-15.19
-18.39
-22.52
-27.62
-33.27
-38.58
-42.38
-43.56
-41.34
-35.58
-26.80
-16.01
-4.48
6.61
16.38
24.28
30.09
33.86
35.84
36.32
35.66
34.14
31.98
29.35
26.44
23.46
20.68
18.34
16.56
15.37
14.60
14.06
13.59
13.11
12.56
11.90
11.02
9.76
7.99
5.64
2.74
-0.63
-4.32
-8.22
-12.19
-16.06
-19.66
-22.84
-25.55
-27.94
-30.30
-33.02
-36.40
-40.50
-44.91
-48.80
-51.05
-50.58
-46.69
-39.32
-29.13
-17.22
-4.91
6.68
16.69
24.69
30.53
34.30
36.25
36.75
36.25
35.15
33.77
32.27
30.65
28.87
26.95
25.00
23.27
22.05
21.56
21.83
22.68
23.71
24.46
24.61
24.08
23.13
22.17
21.60
21.51
21.62
21.38
20.27
18.10
15.20
12.35
10.48
10.24
11.64
14.03
16.28
17.32
16.63
14.54
12.21
11.22
12.93
17.97
25.89
35.23
43.98
50.24
52.88
52.05
49.34
47.45
49.41
57.42
71.88
90.87
110.54
126.29
134.22
132.49
121.76
104.74
85.08
66.02
49.36
35.23
22.49
9.60
-4.47
-19.70
-34.97
-48.61
-59.27
-66.69
-71.99
-77.27
-84.77
-95.74
-109.77
-124.81
-137.94
-146.56
-149.37
-146.78
-140.49
-132.52
-124.32
-116.30
-108.00
-98.94
-89.33
-80.32
-73.56
-70.25
-70.17
-71.52
-71.67
-68.48
-61.62
-52.67
-44.20
-38.04
-33.92
-29.36
-20.98
-6.65
12.94
34.24
52.44
63.79
67.41
65.52
62.09
60.70
62.81
67.38
71.88
74.00
73.06
70.35
68.21
68.52
71.67
76.48
81.41
85.92
91.15
99.28
111.81
128.02
144.62
157.03
161.47
156.50
143.21
123.96
100.64
73.61
42.04
4.94
-37.76
-84.94
-135.10
-187.70
-243.82
-305.57
-374.12
-447.43
-519.15
-579.66
-619.04
-630.83
-614.61
-576.08
-524.51
-468.99
-415.32
-365.08
-316.96
-269.09
-220.93
-173.59
-128.72
-87.11
-47.86
-8.58
33.56
80.78
133.80
191.23
249.74
304.77
351.65
387.04
409.78
421.00
423.37
419.74
412.21
401.83
388.95
373.82
356.84
338.46
318.76
297.35
273.59
247.19
218.68
189.30
160.66
134.22
111.02
91.66
76.40
65.24
57.67
52.62
48.43
43.15
34.76
21.54
2.41
-22.49
-51.46
-81.15
-107.31
-126.38
-137.29
-142.59
-147.76
-158.77
-178.90
-206.79
-236.96
-262.44
-277.89
-281.45
-274.51
-259.88
-239.97
-215.97
-188.29
-157.62
-125.63
-95.00
-68.73
-49.10
-36.88
-31.03
-29.05
-27.72
-24.49
-18.65
-11.98
-7.88
-9.48
-17.51
-29.43
-40.41
-45.56
-42.13
-30.36
-12.70
7.72
28.47
48.18
66.06
81.28
92.63
98.84
99.27
94.41
85.98
76.48
68.48
63.90
63.57
67.20
73.65
81.35
88.87
95.25
100.22
104.06
107.23
110.01
112.27
113.46
112.89
109.99
104.68
97.45
89.31
81.46
74.96
70.38
67.79
66.80
66.87
67.48
68.24
68.82
68.91
68.35
67.20
65.94
65.35
66.12
68.39
71.50
74.06
74.53
71.85
65.64
56.24
44.19
29.93
13.78
-3.80
-22.09
-40.19
-57.27
-72.82
-86.21
-96.10
-99.88
-94.13
-76.01
-45.16
-4.69
39.44
80.59
114.01
138.35
155.31
167.90
178.51
188.13
196.83
205.00
213.97
225.62
240.97
258.91
275.95
287.30
288.76
278.23
256.31
225.58
189.44
150.86
111.74
73.01
34.92
-2.42
-38.80
-73.96
-107.82
-140.67
-173.32
-207.00
-242.91
-281.61
-322.33
-362.64
-398.99
-427.68
-446.03
-453.14
-449.93
-438.48
-421.24
-400.34
-377.25
-352.87
-327.68
-301.95
-275.85
-249.41
-222.53
-195.01
-166.70
-137.79
-109.09
-82.16
-59.17
-42.34
-32.96
-30.72
-33.59
-38.69
-43.44
-46.65
-48.76
-51.23
-55.72
-63.12
-73.18
-84.48
-94.90
-102.17
-104.67
-102.06
-95.52
-87.56
-80.98
-77.76
-77.86
-79.02
-77.59
-70.20
-55.50
-34.93
-12.41
7.20
19.89
23.88
20.06
11.33
1.30
-7.10
-12.31
-13.98
-12.03
-6.02
4.78
20.56
39.80
58.85
72.87
77.87
72.72
59.91
44.44
31.44
24.14
23.13
27.33
35.45
46.77
60.66
75.77
89.63
99.58
104.16
104.00
101.22
97.94
94.85
91.01
85.07
76.65
67.03
58.41
52.60
50.05
49.87
50.63
51.03
50.04
46.60
39.55
28.22
13.36
-2.41
-15.48
-22.86
-23.87
-20.54
-16.50
-14.97
-17.13
-21.91
-27.08
-30.84
-32.71
-33.36
-33.50
-33.08
-31.14
-26.60
-19.36
-10.67
-2.66
2.73
4.82
4.55
4.00
5.42
10.27
18.69
29.59
41.08
51.04
57.57
59.34
55.90
48.00
37.74
28.44
24.14
28.49
43.53
68.62
100.17
132.47
159.49
176.77
182.75
178.82
168.23
154.58
140.82
129.05
120.74
116.84
117.29
120.62
124.03
124.47
120.45
113.32
107.06
106.27
113.38
126.81
141.17
149.79
148.03
135.59
116.50
96.93
82.29
75.09
74.68
78.51
83.86
88.99
93.31
96.73
99.20
100.63
101.37
102.36
104.78
109.00
113.72
115.84
111.36
96.98
71.34
35.40
-8.43
-57.49
-109.80
-164.02
-218.70
-271.64
-319.67
-359.42
-388.31
-405.18
-410.18
-404.18
-388.26
-363.74
-332.60
-297.71
-262.41
-229.67
-201.06
-176.49
-154.74
-134.54
-115.55
-98.51
-84.73
-75.20
-69.99
-68.23
-68.62
-69.92
-71.39
-72.81
-74.32
-76.21
-78.71
-81.74
-84.71
-86.48
-85.55
-80.56
-70.69
-56.14
-38.42
-20.09
-4.26
6.00
8.22
1.10
-14.93
-37.55
-62.90
-86.35
-103.73
-112.24
-110.89
-100.08
-80.88
-54.12
-20.04
21.38
69.57
122.52
176.47
226.43
267.38
295.72
310.21
311.98
303.91
289.45
271.46
251.68
231.01
210.24
190.54
173.48
160.33
151.36
145.38
140.26
133.79
124.77
113.48
101.44
90.64
82.56
77.58
74.95
73.22
70.90
67.02
61.40
54.66
47.84
41.98
37.67
34.75
32.41
29.52
25.11
18.83
11.03
2.48
-5.99
-13.94
-21.55
-29.53
-38.85
-50.40
-64.56
-80.94
-98.20
-114.10
-125.83
-130.70
-126.85
-113.93
-93.32
-67.83
-40.92
-15.71
5.82
23.15
36.94
48.37
58.30
66.89
73.63
77.87
79.28
78.04
74.59
69.12
61.34
50.71
37.07
21.16
4.59
-10.84
-24.06
-35.21
-45.42
-55.88
-66.87
-77.39
-85.58
-89.69
-89.07
-84.60
-78.33
-72.61
-69.21
-68.57
-69.92
-71.63
-72.02
-70.18
-66.32
-61.68
-57.89
-56.21
-56.94
-59.42
-62.41
-64.76
-65.77
-65.34
-63.66
-60.90
-57.13
-52.48
-47.39
-42.65
-39.15
-37.28
-36.52
-35.53
-32.92
-28.18
-22.28
-17.37
-15.63
-17.99
-23.33
-28.84
-31.26
-28.36
-19.84
-7.27
6.77
19.80
30.21
37.49
41.95
44.21
44.82
44.04
41.90
38.42
33.85
28.80
24.01
19.98
16.59
13.08
8.55
2.48
-4.73
-11.90
-17.71
-21.45
-23.44
-24.69
-26.20
-28.15
-29.79
-29.84
-27.33
-22.08
-14.75
-6.28
2.60
11.54
20.26
28.11
33.99
36.75
36.01
32.55
28.15
24.58
22.52
21.13
18.55
13.19
4.89
-4.73
-13.04
-17.83
-18.45
-16.01
-12.56
-9.79
-8.17
-6.96
-5.06
-1.91
2.06
5.71
8.01
8.71
8.44
8.18
8.50
9.09
8.87
6.69
2.11
-4.16
-10.50
-15.21
-17.24
-16.65
-14.34
-11.50
-8.99
-7.00
-5.24
-3.27
-0.74
2.57
6.94
12.74
20.25
29.40
39.49
49.32
57.67
63.76
67.56
69.67
70.90
71.77
72.40
72.58
72.11
71.03
69.62
68.13
66.55
64.51
61.48
57.13
51.58
45.40
39.36
33.91
28.99
23.86
17.53
9.19
-1.34
-13.56
-26.43
-38.84
-50.00
-59.66
-68.03
-75.49
-82.37
-88.79
-94.81
-100.55
-106.28
-112.23
-118.29
-123.75
-127.39
-127.97
-124.94
-119.04
-112.11
-106.44
-103.49
-103.05
-103.08
-100.50
-92.72
-78.96
-60.82
-41.66
-25.09
-13.28
-5.99
-0.78
5.65
15.89
30.65
48.78
68.17
86.98
104.40
120.47
135.31
148.39
158.61
164.86
166.85
165.22
161.00
154.68
145.79
133.28
116.48
95.97
73.57
51.55
31.50
13.78
-2.34
-17.79
-32.94
-47.44
-60.61
-71.97
-81.30
-88.48
-93.20
-94.92
-93.25
-88.32
-80.84
-71.70
-61.54
-50.61
-38.96
-26.92
-15.32
-5.28
2.38
7.56
11.01
13.84
16.89
20.36
23.90
26.99
29.41
31.34
33.19
35.27
37.61
39.90
41.71
42.62
42.46
41.24
39.19
36.66
33.98
31.38
28.86
26.20
23.02
18.99
14.03
8.40
2.61
-2.83
-7.67
-12.05
-16.39
-21.18
-26.53
-32.09
-36.99
-40.20
-40.83
-38.49
-33.39
-26.21
-17.89
-9.29
-1.10
6.26
12.56
17.67
21.50
23.99
25.11
24.95
23.69
21.68
19.39
17.29
15.74
14.80
14.26
13.81
13.27
12.77
12.69
13.42
15.04
17.15
18.95
19.60
18.58
15.91
12.11
7.93
3.99
0.55
-2.47
-5.36
-8.38
-11.66
-15.16
-18.75
-22.40
-26.14
-30.03
-33.95
-37.44
-39.68
-39.73
-36.88
-31.04
-22.83
-13.40
-4.02
4.36
11.30
16.90
21.42
25.09
27.93
29.85
30.77
30.79
30.18
29.21
28.02
26.60
24.86
22.91
21.10
19.96
19.94
21.07
22.94
24.82
26.02
26.17
25.29
23.59
21.24
18.16
14.13
9.09
3.33
-2.37
-7.03
-9.84
-10.51
-9.28
-6.82
-3.92
-1.27
0.63
1.45
1.10
-0.16
-1.61
-2.14
-0.55
3.96
11.41
20.88
30.82
39.63
46.14
49.84
50.84
49.47
46.12
41.00
34.31
26.31
17.42
8.20
-0.82
-9.26
-16.89
-23.56
-29.08
-33.17
-35.48
-35.76
-34.05
-30.68
-26.28
-21.58
-17.18
-13.45
-10.50
-8.29
-6.67
-5.51
-4.64
-3.97
-3.46
-3.19
-3.29
-3.86
-4.87
-6.11
-7.28
-8.15
-8.74
-9.33
-10.42
-12.54
-16.04
-20.94
-26.80
-32.85
-38.05
-41.38
-42.10
-39.93
-35.23
-28.83
-21.84
-15.31
-9.99
-6.14
-3.62
-2.06
-1.03
-0.31
0.14
0.15
-0.45
-1.74
-3.59
-5.74
-7.88
-9.75
-11.18
-12.04
-12.14
-11.24
-9.06
-5.49
-0.69
4.83
10.28
14.92
18.20
19.96
20.32
19.56
17.90
15.50
12.50
9.11
5.62
2.26
-0.98
-4.33
-8.10
-12.43
-17.08
-21.45
-24.88
-26.95
-27.68
-27.48
-26.93
-26.55
-26.71
-27.50
-28.66
-29.45
-28.67
-25.01
-17.44
-5.75
9.29
26.07
42.66
57.28
68.62
75.96
79.15
78.48
74.68
68.75
61.85
54.90
48.46
42.70
37.51
32.77
28.31
23.89
19.17
13.74
7.30
-0.13
-8.20
-16.35
-24.07
-31.04
-37.25
-42.75
-47.60
-51.61
-54.47
-55.80
-55.41
-53.45
-50.42
-46.92
-43.42
-40.04
-36.44
-32.11
-26.70
-20.36
-13.86
-8.40
-5.05
-4.31
-5.94
-9.16
-13.14
-17.55
-22.51
-28.41
-35.31
-42.56
-48.81
-52.45
-52.24
-47.62
-38.67
-25.91
-10.16
7.26
24.45
38.99
48.67
52.34
50.65
45.91
41.21
38.91
39.59
41.83
43.13
41.29
35.63
27.41
19.24
13.89
13.13
17.08
24.30
32.42
39.22
43.22
44.00
41.96
37.88
32.55
26.53
20.17
13.62
6.82
-0.55
-9.14
-19.71
-32.66
-47.35
-61.91
-73.50
-79.40
-78.11
-70.18
-58.12
-45.38
-35.02
-28.67
-26.50
-27.83
-32.00
-38.63
-47.29
-56.92
-65.59
-71.04
-71.61
-67.04
-58.54
-48.12
-37.63
-28.00
-19.19
-10.65
-1.90
7.11
15.99
24.20
31.18
36.44
39.58
40.24
38.25
33.65
26.86
18.68
10.21
2.73
-2.62
-5.08
-4.56
-1.55
3.07
8.44
14.00
19.62
25.31
30.96
36.17
40.30
42.82
43.63
43.14
42.15
41.41
41.25
41.41
41.25
40.11
37.81
34.77
31.87
29.97
29.39
29.63
29.57
27.98
24.10
17.95
10.23
1.90
-6.22
-13.69
-20.32
-26.01
-30.46
-33.20
-33.61
-31.16
-25.54
-16.81
-5.41
7.86
21.95
35.78
48.45
59.45
68.62
76.09
82.08
86.87
90.88
94.73
99.25
105.22
113.15
123.13
134.94
148.29
163.13
179.65
197.96
217.49
236.57
252.40
261.47
260.59
247.77
222.87
187.56
144.82
98.22
50.91
5.23
-37.64
-77.70
-115.83
-153.53
-192.56
-234.81
-281.68
-333.32
-387.85
-441.00
-486.45
-517.33
-528.38
-517.90
-488.53
-446.17
-397.58
-347.96
-299.86
-253.89
-210.41
-170.75
-136.92
-110.14
-89.06
-69.37
-45.13
-11.23
34.35
89.53
148.39
202.99
245.36
269.42
272.29
254.83
221.59
179.49
135.97
96.95
65.39
41.24
22.42
6.49
-8.04
-21.24
-32.50
-41.69
-50.05
-60.00
-73.89
-92.43
-113.69
-133.64
-147.91
-153.97
-152.43
-146.59
-140.54
-136.94
-135.68
-134.16
-128.79
-117.01
-98.64
-75.93
-52.33
-30.90
-13.04
1.73
15.05
28.43
42.24
55.64
67.32
76.37
82.83
87.36
90.46
92.01
91.41
88.28
82.97
76.60
70.41
65.09
60.65
56.88
54.06
53.04
54.74
59.21
65.24
