1670831610.00
64.000000
-0.00
-0.00
-0.00
-0.00
-0.00
-0.00
-0.00
-0.00
-0.00
-0.00
0.00
0.01
0.01
-0.00
-0.03
-0.05
-0.05
0.00
0.13
0.36
0.66
1.01
1.37
1.72
2.06
2.40
2.79
3.24
3.80
4.42
5.06
5.66
6.20
6.68
7.15
7.68
8.31
9.14
10.09
11.04
11.88
12.56
13.14
13.76
14.65
15.96
17.91
20.32
22.90
25.38
27.58
29.57
31.68
34.32
37.81
42.54
48.15
54.10
59.83
64.97
69.58
74.14
79.34
85.71
93.76
103.00
112.62
121.73
129.77
136.75
143.30
150.75
157.77
166.64
177.95
191.79
206.97
220.57
228.25
225.36
208.53
176.87
132.76
80.05
23.07
-34.94
-92.44
-149.16
-205.23
-260.37
-313.74
-363.87
-409.83
-450.91
-486.50
-515.74
-537.23
-549.22
-549.96
-538.37
-514.21
-478.67
-433.88
-382.45
-327.02
-269.84
-212.63
-156.66
-102.95
-52.37
-5.90
35.58
71.43
101.35
125.50
144.38
158.69
169.15
176.37
180.75
182.57
182.07
179.51
175.23
169.66
163.19
156.17
148.84
141.34
133.75
126.10
118.44
110.81
103.30
95.97
88.86
82.02
75.45
69.16
63.16
57.46
52.07
47.00
42.25
37.82
33.71
29.89
26.38
23.16
20.24
17.60
15.24
13.15
11.33
9.77
8.43
7.32
6.41
5.67
5.08
4.64
4.32
4.10
3.97
3.92
3.95
4.04
4.18
4.38
4.63
4.93
5.26
5.64
6.06
6.53
7.07
7.64
8.24
8.86
9.46
10.05
10.63
11.24
11.89
12.56
13.12
13.43
13.31
12.62
11.32
9.50
7.31
5.00
2.87
1.14
0.01
-0.42
-0.07
1.16
3.40
6.73
11.26
16.89
23.26
29.79
35.78
40.60
43.89
45.63
45.99
45.30
43.77
41.13
36.78
29.95
20.18
7.64
-6.71
-21.41
-34.71
-45.37
-53.07
-58.44
-62.71
-67.04
-71.90
-76.87
-81.00
-83.21
-83.09
-81.41
-79.89
-80.62
-85.34
-95.07
-108.77
-126.00
-144.47
-160.04
-167.58
-162.54
-143.28
-112.26
-75.57
-40.63
-13.21
5.09
16.68
25.87
36.27
48.68
61.66
73.08
82.06
89.43
97.32
107.53
120.65
136.13
152.23
166.38
175.43
175.93
164.86
141.33
107.71
68.62
32.24
5.09
-10.20
-15.11
-13.68
-9.94
-6.05
-2.03
2.90
9.03
15.06
19.03
19.69
17.35
13.81
11.31
11.71
15.42
21.53
28.09
33.23
36.05
36.82
36.83
37.51
39.86
43.96
49.03
53.59
56.24
56.15
53.32
48.36
41.93
34.66
26.64
17.68
7.36
-4.47
-17.42
-30.59
-42.18
-51.50
-58.21
-62.55
-65.27
-67.29
-69.23
-71.17
-73.03
-73.84
-73.18
-71.13
-68.53
-66.57
-66.34
-68.27
-71.92
-76.12
-79.52
-81.34
-81.55
-80.93
-80.69
-82.01
-85.76
-92.57
-102.56
-114.76
-126.77
-134.60
-133.86
-121.57
-98.10
-67.57
-36.75
-12.35
1.57
4.74
0.09
-8.44
-17.89
-27.17
-36.45
-46.05
-55.41
-63.01
-67.19
-67.04
-62.72
-55.11
-45.38
-33.81
-20.08
-3.46
16.59
39.90
65.34
90.96
114.57
133.46
146.81
154.84
158.52
159.10
157.74
155.14
151.49
146.80
141.63
135.95
130.05
124.46
119.62
115.76
112.82
110.37
107.98
105.30
102.22
98.66
94.54
89.66
83.64
76.53
67.51
56.32
43.15
28.60
13.46
-1.55
-15.90
-29.77
-42.66
-54.54
-65.16
-74.10
-80.79
-84.82
-86.10
-85.11
-82.71
-79.87
-77.42
-75.70
-74.70
-73.81
-72.51
-70.16
-65.85
-58.61
-47.87
-34.44
-20.59
-9.44
-3.61
-4.11
-9.69
-17.52
-24.61
-29.01
-30.38
-29.39
-26.68
-22.23
-15.63
-6.76
3.35
12.73
19.30
21.83
20.63
17.27
13.81
11.84
12.25
14.70
17.71
19.78
19.71
17.23
13.28
9.49
7.39
7.84
10.51
14.07
16.95
17.63
14.91
8.01
-3.14
-17.27
-31.19
-40.48
-40.96
-30.66
-11.52
10.95
29.68
39.16
37.33
26.79
12.50
-0.85
-10.89
-17.93
-23.64
-29.40
-35.17
-39.75
-41.73
-40.59
-37.12
-33.05
-30.59
-31.37
-35.82
-43.08
-51.19
-57.82
-61.11
-60.40
-56.38
-50.91
-46.14
-43.35
-42.14
-40.58
-35.91
-25.73
-9.28
12.34
36.69
61.02
83.00
99.59
108.06
105.71
91.46
67.59
40.13
17.28
4.26
2.39
8.49
16.62
21.49
21.24
17.56
14.19
14.19
18.61
26.42
34.87
40.58
40.76
34.49
22.85
11.50
6.85
13.08
30.04
52.90
74.79
90.82
100.69
107.91
116.30
125.64
130.50
123.18
98.51
57.97
10.10
-33.24
-62.26
-73.30
-69.58
-58.78
-48.58
-43.42
-43.54
-46.06
-47.56
-46.01
-41.62
-36.09
-31.62
-29.74
-30.98
-35.10
-41.64
-50.64
-62.24
-75.70
-88.42
-96.05
-93.84
-78.46
-51.59
-18.74
12.66
36.38
50.00
55.24
56.25
57.01
59.23
62.06
64.01
64.09
62.91
62.31
64.14
69.25
77.25
86.89
96.21
103.22
105.57
100.88
87.45
65.19
36.29
4.99
-23.73
-45.92
-59.80
-66.11
-67.11
-65.17
-61.89
-57.86
-53.35
-48.86
-45.42
-43.97
-44.86
-47.44
-50.24
-51.99
-51.86
-50.08
-47.70
-46.07
-46.20
-48.37
-52.11
-56.37
-60.24
-63.13
-65.10
-66.73
-68.83
-72.06
-76.67
-82.44
-88.76
-95.10
-100.90
-105.91
-110.06
-113.31
-115.54
-116.44
-115.92
-112.96
-106.79
-96.87
-83.09
-65.78
-45.67
-23.75
-1.22
20.69
41.16
58.65
72.07
80.80
84.69
83.97
79.42
71.97
62.80
53.22
44.33
37.12
32.36
30.43
31.28
34.56
39.60
45.56
51.64
57.03
61.25
63.93
64.88
64.15
62.01
58.84
55.25
51.53
47.83
44.25
40.78
37.41
34.11
30.95
27.98
25.30
23.00
21.04
19.32
17.69
15.98
14.14
12.26
10.58
9.31
8.65
8.52
8.65
8.63
8.09
6.91
5.39
4.13
3.79
4.77
6.93
9.52
11.50
12.00
10.75
8.36
6.11
5.37
7.03
10.86
15.64
19.51
20.90
19.25
15.45
11.39
8.98
9.53
12.76
16.96
19.59
18.32
11.22
-2.58
-22.60
-46.79
-70.73
-88.39
-93.82
-83.92
-60.85
-32.63
-10.58
-4.76
-19.48
-50.69
-87.99
-119.22
-135.75
-135.29
-121.59
-101.27
-79.56
-60.15
-43.74
-30.38
-20.71
-15.44
-13.85
-12.45
-5.90
10.34
36.98
70.42
103.56
129.10
142.60
143.91
136.20
123.82
110.52
97.60
84.79
71.68
58.07
44.14
30.01
15.72
1.18
-13.33
-27.34
-39.61
-48.81
-53.92
-54.67
-51.61
-45.99
-39.42
-33.37
-28.94
-26.43
-25.49
-25.48
-25.80
-26.10
-26.37
-26.87
-27.88
-29.57
-31.78
-34.02
-35.77
-36.71
-36.81
-36.30
-35.60
-35.13
-35.27
-36.31
-38.05
-40.04
-42.08
-44.37
-47.51
-52.23
-59.15
-68.66
-80.91
-95.41
-111.20
-127.32
-143.10
-158.25
-172.67
-186.30
-199.17
-211.43
-222.62
-231.50
-237.21
-239.57
-239.12
-236.46
-231.53
-223.19
-213.83
-203.76
-190.28
-171.22
-146.36
-117.78
-88.33
-60.28
-35.07
-13.43
5.29
27.32
57.54
96.54
140.37
183.50
221.63
252.38
275.06
291.06
310.98
343.37
389.98
445.01
499.92
548.09
586.16
613.51
632.29
656.70
697.87
757.73
828.55
899.91
964.70
1019.65
1062.87
1026.13
873.39
618.60
320.23
39.65
-187.18
-349.86
-454.08
-514.52
-548.60
-560.37
-551.95
-525.74
-487.25
-441.81
-392.61
-341.98
-295.83
-262.47
-240.68
-226.43
-215.60
-206.76
-199.85
-195.08
-193.08
-195.61
-203.45
-210.06
-208.45
-195.18
-172.69
-146.15
-120.05
-96.40
-75.58
-56.66
-36.43
-14.10
6.81
19.05
16.18
-6.23
-41.72
-78.39
-104.67
-113.37
-104.18
-82.58
-57.06
-34.64
-18.72
-8.92
-4.10
-2.37
-2.30
-2.70
-2.74
-3.02
-4.42
-8.17
-15.40
-27.63
-45.08
-65.72
-85.16
-92.85
-82.13
-52.71
-11.87
28.92
58.54
71.68
70.47
62.66
57.80
60.30
69.99
83.49
94.82
97.86
89.37
69.89
43.12
14.09
-12.65
-33.94
-48.03
-51.99
-45.52
-29.74
-6.55
21.70
52.06
81.87
108.34
129.12
140.08
136.17
114.32
75.50
24.31
-33.49
-91.69
-145.93
-181.96
-187.48
-160.91
-111.95
-53.24
6.28
55.06
92.15
116.29
127.98
128.40
119.61
106.23
92.41
80.50
67.76
49.78
21.75
-17.83
-68.37
-126.89
-186.83
-238.15
-269.65
-276.58
-261.02
-232.55
-204.15
-189.39
-198.01
-231.74
-283.83
-323.20
-323.06
-275.27
-195.82
-109.04
-31.94
29.92
78.62
117.60
149.42
172.09
182.62
180.61
169.80
156.38
145.22
138.29
133.91
129.20
119.80
101.94
75.02
42.21
8.76
-20.64
-43.55
-62.17
-81.04
-101.35
-125.50
-153.78
-183.00
-207.02
-219.21
-205.61
-164.52
-108.31
-56.02
-22.26
-10.63
-16.07
-30.34
-46.43
-60.86
-74.45
-89.29
-104.53
-117.75
-126.26
-128.37
-124.38
-115.80
-104.64
-93.24
-84.44
-77.70
-71.14
-62.69
-51.25
-36.95
-20.66
-3.62
12.48
27.00
41.38
57.64
77.67
102.40
131.60
164.10
198.28
232.19
264.55
295.26
324.44
351.79
376.03
394.86
405.37
404.59
390.07
360.51
316.49
260.32
195.97
128.80
64.99
10.70
-29.12
-51.79
-57.50
-49.23
-31.87
-10.86
8.87
23.87
32.44
34.23
29.80
20.03
6.00
-11.05
-29.63
-48.15
-65.04
-79.06
-89.50
-96.22
-99.47
-99.69
-97.23
-92.05
-83.68
-71.36
-54.64
-33.91
-10.87
11.83
31.34
45.71
54.56
58.96
60.68
61.06
60.28
57.43
51.00
39.61
22.85
1.64
-21.83
-44.35
-62.64
-74.15
-77.73
-73.80
-63.83
-49.65
-32.87
-14.99
2.35
17.12
27.29
31.63
30.41
25.39
19.09
13.56
9.51
6.41
3.11
-1.16
-6.34
-11.64
-16.12
-19.08
-20.28
-19.83
-17.95
-14.99
-11.57
-8.71
-7.81
-10.07
-15.96
-24.50
-33.20
-38.77
-38.55
-31.68
-19.71
-6.04
5.72
13.26
16.35
16.43
15.37
14.27
13.18
11.52
8.84
5.54
2.65
1.29
1.96
4.19
7.06
9.92
12.74
15.85
19.77
24.82
30.94
37.74
44.23
49.41
52.54
53.31
51.46
47.43
42.51
38.55
37.37
38.87
41.86
44.92
47.16
47.79
47.10
46.39
47.25
50.92
55.56
58.51
57.69
51.58
37.76
14.55
-17.61
-55.09
-91.14
-121.17
-141.53
-150.13
-148.04
-141.28
-137.44
-142.44
-158.11
-181.84
-212.90
-249.49
-288.28
-311.46
-304.69
-266.54
-210.18
-162.34
-125.84
-100.99
-87.54
-81.12
-78.77
-78.45
-76.78
-69.42
-51.47
-18.72
19.41
48.01
57.40
47.72
24.71
-1.12
-26.54
-48.96
-65.05
-74.42
-76.07
-69.00
-52.87
-29.95
-3.86
21.71
45.77
69.94
95.44
124.37
158.96
199.27
241.47
278.98
304.44
313.71
307.09
287.94
262.44
237.11
216.09
199.61
185.16
169.50
151.49
132.48
114.87
101.17
92.55
88.22
85.96
83.59
79.81
74.78
69.09
62.53
53.91
41.64
25.17
6.09
-11.84
-24.36
-28.57
-24.30
-13.70
0.51
16.59
34.19
53.10
71.73
86.61
93.67
90.84
79.88
66.27
56.54
54.67
59.70
66.22
67.24
57.74
36.95
8.33
-21.84
-46.80
-61.14
-61.97
-49.46
-26.59
1.76
30.53
56.20
77.84
96.56
113.83
129.43
140.47
142.64
132.49
109.45
76.14
36.85
-4.97
-48.29
-93.95
-142.89
-194.24
-244.80
-289.98
-325.67
-349.53
-361.82
-365.34
-365.07
-367.14
-377.14
-397.86
-427.55
-459.68
-484.88
-494.55
-484.15
-454.81
-411.99
-362.33
-310.59
-258.07
-203.52
-145.10
-82.07
-15.01
54.76
125.70
195.99
263.03
322.97
371.34
404.25
419.52
417.41
400.03
370.14
330.23
282.29
228.27
170.72
112.80
57.32
5.90
-41.40
-85.41
-126.72
-165.04
-199.63
-229.75
-254.82
-273.96
-285.01
-284.42
-268.35
-234.78
-185.33
-125.62
-63.34
-5.38
44.61
87.34
126.18
164.45
202.55
236.83
260.67
267.28
252.79
217.55
166.46
106.54
44.40
-14.74
-66.78
-107.31
-130.91
-132.06
-108.25
-61.65
-0.21
63.82
117.51
151.37
162.02
152.34
129.84
102.78
78.20
59.85
47.67
38.94
30.31
19.50
5.73
-10.34
-28.19
-46.04
-61.28
-71.18
-73.90
-69.92
-62.75
-58.43
-57.29
-60.84
-67.48
-72.15
-69.82
-58.89
-41.74
-22.83
-5.77
8.21
18.95
27.27
33.42
36.53
35.76
31.48
25.39
19.80
16.69
15.91
16.25
16.04
13.69
8.81
2.54
-3.28
-6.77
-7.13
-5.24
-2.57
-0.64
-0.98
-4.42
-10.39
-16.98
-20.56
-17.11
-3.85
19.35
49.54
80.39
104.85
118.10
119.06
110.71
98.29
86.85
77.81
71.29
64.08
50.41
28.04
-0.46
-28.65
-49.77
-60.41
-62.01
-59.70
-58.69
-60.76
-63.30
-62.23
-56.26
-49.05
-47.61
-57.48
-79.11
-107.16
-133.65
-151.90
-159.46
-157.33
-147.69
-131.97
-110.34
-82.89
-50.83
-16.23
16.10
41.66
59.14
70.86
80.84
91.82
102.90
109.67
106.40
89.37
59.77
24.25
-7.74
-27.93
-32.36
-22.54
-3.76
18.27
40.13
62.18
86.88
115.75
146.46
172.72
186.39
181.48
157.33
119.29
76.77
39.08
11.97
-3.89
-11.70
-15.88
-19.39
-23.14
-27.24
-32.46
-41.17
-56.09
-78.13
-104.68
-129.32
-143.68
-140.39
-115.84
-70.95
-10.46
59.40
133.71
209.75
286.33
361.88
432.13
489.37
524.46
530.28
506.32
460.77
408.11
363.55
336.38
326.67
326.46
324.34
311.21
284.10
246.44
204.64
164.11
126.51
90.00
51.49
8.66
-39.22
-90.33
-140.76
-185.60
-219.80
-240.01
-244.99
-235.75
-215.62
-191.70
-170.91
-157.88
-154.78
-161.25
-176.56
-197.00
-215.64
-224.36
-221.67
-210.34
-197.12
-191.99
-203.65
-238.68
-293.24
-353.62
-403.52
-439.17
-464.60
-487.96
-517.21
-554.15
-599.14
-644.18
-676.16
-684.38
-673.38
-650.88
-621.75
-587.54
-547.07
-508.24
-478.74
-463.21
-406.29
-285.95
-124.93
30.45
125.41
178.35
207.83
227.53
253.74
292.75
336.95
377.99
411.86
438.49
461.67
477.17
481.83
475.08
456.62
421.10
368.41
307.04
251.13
216.00
205.16
215.81
241.08
271.32
293.63
300.11
290.60
270.90
249.85
231.50
218.16
210.81
208.33
206.33
200.83
190.05
174.69
157.23
138.63
119.57
100.24
79.89
56.53
28.72
-3.82
-39.76
-76.61
-112.08
-143.74
-169.63
-189.01
-202.28
-210.40
-213.91
-211.90
-202.41
-183.51
-155.14
-120.25
-84.29
-53.30
-31.27
-18.35
-10.94
-3.82
7.01
22.36
39.68
54.94
64.73
68.16
67.02
64.76
64.71
68.45
75.27
82.38
86.17
83.06
70.49
47.41
14.43
-26.03
-69.94
-111.84
-146.06
-168.04
-176.16
-172.84
-163.97
-157.29
-158.94
-170.81
-189.48
-207.65
-216.90
-210.87
-187.36
-149.00
-102.01
-53.84
-10.90
23.12
47.73
65.19
78.93
92.14
106.66
122.88
140.56
159.99
182.38
209.31
241.25
276.27
308.84
331.21
335.97
319.86
286.11
243.81
204.70
177.84
165.49
163.45
165.11
166.05
166.76
171.37
183.32
201.18
217.54
222.16
208.28
177.33
138.32
103.68
83.28
80.38
91.36
108.64
123.48
130.87
130.56
124.97
116.27
105.11
90.22
69.27
40.13
-0.78
-53.46
-114.01
-177.19
-238.79
-296.02
-346.70
-388.51
-419.36
-443.08
-461.30
-472.52
-475.51
-471.84
-464.41
-454.77
-442.17
-425.02
-411.26
-405.46
-406.82
-413.25
-425.08
-443.50
-467.80
-495.48
-523.90
-561.82
-610.11
-657.72
-688.49
-690.54
-659.66
-598.98
-517.84
-362.35
-139.57
91.12
270.59
382.39
441.14
467.28
475.20
472.57
463.37
439.64
400.91
356.52
317.70
289.22
269.21
253.37
238.04
221.58
195.99
160.23
121.55
88.61
65.48
51.16
42.64
37.01
32.95
24.78
10.99
-4.89
-18.26
-27.51
-33.92
-39.63
-46.32
-53.78
-63.78
-75.84
-87.11
-94.25
-95.40
-89.85
-76.41
-59.47
-40.28
-20.48
-0.77
18.91
38.65
57.88
75.47
90.48
102.30
111.99
120.76
129.85
140.19
152.14
165.52
179.61
193.62
206.75
219.32
231.86
245.31
260.82
279.34
300.94
324.11
345.62
360.82
365.36
356.05
332.10
295.52
250.57
202.49
156.09
114.76
80.08
52.36
30.89
14.53
2.06
-7.66
-15.61
-22.62
-29.20
-35.63
-41.75
-47.10
-51.25
-53.91
-55.22
-55.60
-55.62
-55.70
-55.95
-56.30
-56.42
-56.13
-55.37
-54.32
-53.24
-52.47
-52.15
-52.24
-52.50
-52.44
-51.57
-49.46
-45.99
-41.34
-36.09
-30.87
-26.31
-22.75
-20.18
-18.36
-16.95
-15.66
-14.46
-13.43
-12.76
-12.60
-12.96
-13.65
-14.36
-14.79
-14.72
-14.22
-13.44
-12.67
-12.14
-11.99
-12.19
-12.60
-13.09
-13.49
-13.72
-13.69
-13.40
-12.89
-12.25
-11.67
-11.43
-11.77
-12.85
-14.69
-17.00
-19.32
-21.12
-21.93
-21.54
-19.98
-17.53
-14.53
-11.38
-8.31
-5.48
-3.02
-0.92
0.72
1.96
2.79
3.27
3.39
3.17
2.61
1.72
0.61
-0.58
-1.61
-2.32
-2.66
-2.75
-2.75
-2.89
-3.26
-3.82
-4.45
-5.06
-5.59
-6.11
-6.71
-7.44
-8.34
-9.41
-10.63
-12.03
-13.60
-15.24
-16.76
-17.81
-18.04
-17.17
-15.13
-12.08
-8.46
-4.79
-1.47
1.20
3.14
4.45
5.26
5.64
5.62
5.12
4.11
2.73
1.17
-0.28
-1.42
-2.15
-2.50
-2.58
-2.46
-2.14
-1.62
-0.98
-0.38
-0.13
-0.42
-1.26
-2.42
-3.59
-4.48
-4.97
-5.22
-5.49
-6.06
-7.08
-8.49
-10.13
-11.74
-13.04
-13.78
-13.84
-13.13
-11.62
-9.40
-6.58
-3.35
0.06
3.37
6.29
8.54
9.97
10.57
10.47
9.93
9.28
8.82
8.70
8.95
9.48
10.17
10.89
11.49
11.92
12.20
12.41
12.60
12.83
13.01
13.11
13.05
12.83
12.65
12.85
13.69
15.30
17.57
20.05
22.24
23.75
24.58
25.27
26.77
30.10
36.01
44.63
55.25
66.62
77.49
86.99
95.11
102.62
110.59
119.85
130.41
141.28
150.85
157.50
160.36
159.76
157.08
154.29
153.45
155.97
162.12
170.76
179.47
184.86
183.72
174.12
156.22
132.38
106.20
80.88
58.06
37.27
16.60
-5.91
-31.23
-58.76
-86.37
-111.29
-130.87
-143.33
-148.39
-147.70
-144.14
-141.12
-141.15
-144.79
-150.91
-157.86
-164.93
-172.92
-183.14
-194.98
-204.39
-204.24
-186.94
-148.24
-89.98
-20.20
49.27
106.70
143.87
157.88
150.86
128.48
97.99
66.49
39.75
21.35
12.40
11.57
15.54
19.94
20.54
13.81
-2.23
-27.63
-60.43
-96.45
-130.14
-155.76
-169.23
-169.40
-158.53
-141.51
-123.82
-109.64
-100.62
-95.99
-93.82
-92.39
-90.92
-89.38
-87.72
-85.01
-79.68
-70.62
-58.30
-45.57
-37.16
-38.10
-51.87
-79.23
-117.99
-163.93
-211.97
-256.99
-294.29
-319.37
-328.22
-317.69
-286.70
-237.21
-174.29
-105.11
-36.78
25.47
79.19
124.20
160.92
188.89
206.25
210.75
201.92
182.61
158.91
138.09
125.51
122.09
124.28
126.28
123.21
113.68
100.14
87.39
79.92
79.87
86.08
94.69
100.58
98.81
85.99
60.97
25.28
-17.19
-61.01
-100.52
-131.17
-150.39
-157.88
-155.29
-145.57
-132.21
-118.63
-107.68
-101.16
-99.52
-101.92
-106.56
-111.19
-113.71
-112.79
-108.14
-100.80
-92.72
-85.97
-81.70
-79.48
-77.17
-72.11
-62.99
-51.48
-42.49
-42.14
-54.38
-78.00
-105.89
-127.08
-130.99
-111.72
-70.23
-13.55
48.15
105.20
150.89
182.20
199.20
203.84
198.99
188.19
175.15
163.26
154.74
150.16
148.48
147.78
146.12
142.35
136.38
128.74
120.12
110.78
100.70
89.79
78.25
66.46
54.61
42.59
29.91
16.02
0.46
-17.24
-38.00
-62.91
-92.48
-124.99
-155.37
-175.68
-177.83
-156.84
-113.85
-56.46
3.96
56.29
93.17
112.49
116.71
110.67
99.67
87.77
77.17
67.97
58.60
46.69
30.27
8.94
-15.88
-41.39
-64.68
-83.81
-98.14
-107.67
-112.30
-111.62
-105.34
-94.17
-80.19
-66.46
-55.79
-49.57
-47.54
-47.98
-48.71
-48.18
-45.99
-42.75
-39.63
-37.60
-36.91
-37.17
-37.55
-37.40
-36.61
-35.55
-34.78
-34.57
-34.59
-33.94
-31.69
-27.12
-20.20
-11.42
-1.66
8.10
16.92
23.99
28.82
31.18
31.38
30.21
28.75
28.08
28.74
30.54
32.60
33.76
33.15
30.74
27.35
24.34
23.03
24.09
27.22
31.30
34.80
36.29
35.04
31.30
26.60
23.56
25.28
34.26
51.10
73.94
98.69
120.42
135.07
140.84
138.44
130.33
119.47
108.25
98.10
89.57
82.62
76.31
68.81
57.27
38.85
12.03
-21.95
-58.82
-92.36
-116.43
-127.33
-124.94
-112.58
-95.32
-78.08
-64.04
-54.14
-47.76
-43.63
-40.83
-38.99
-38.18
-38.43
-39.45
-40.72
-41.43
-40.64
-37.21
-30.00
-18.05
-1.21
19.44
41.52
61.66
76.49
83.58
82.35
74.12
61.71
48.53
37.28
29.24
23.91
19.72
14.82
8.21
0.12
-8.18
-15.08
-19.59
-21.76
-22.44
-22.61
-22.78
-22.87
-22.30
-20.64
-17.93
-14.64
-11.51
-9.13
-7.69
-6.97
-6.47
-5.66
-4.34
-2.71
-1.33
-0.84
-1.67
-3.90
-7.23
-11.14
-15.05
-18.56
-21.40
-23.40
-24.33
-23.93
-21.91
-18.12
-12.68
-6.03
1.18
8.14
14.19
18.92
22.19
24.15
25.13
25.49
25.44
25.11
24.50
23.63
22.52
21.35
20.26
19.34
18.54
17.67
16.52
14.89
12.72
10.02
6.93
3.65
0.29
-3.12
-6.52
-9.89
-13.23
-16.53
-19.75
-22.86
-25.55
-27.43
-27.93
-26.49
-22.78
-16.95
-9.62
-1.78
5.52
11.49
15.76
18.41
19.67
19.88
19.25
17.92
16.10
14.00
11.92
10.09
8.62
7.33
6.00
4.39
2.47
0.44
-1.55
-3.30
-4.85
-6.37
-8.10
-10.23
-12.81
-15.76
-18.77
-21.60
-23.79
-24.97
-24.74
-22.99
-19.85
-15.74
-11.20
-6.61
-2.07
2.57
7.46
12.47
17.08
20.58
22.35
22.23
20.65
18.38
16.32
14.89
14.03
13.29
12.16
10.31
7.77
4.80
1.76
-0.96
-3.08
-4.31
-4.30
-2.73
0.45
4.98
10.20
15.20
19.17
21.54
22.23
21.47
19.68
17.17
14.09
10.44
6.16
1.35
-3.70
-8.34
-11.81
-13.40
-12.65
-9.61
-4.83
0.82
6.44
11.36
15.31
18.32
20.46
21.86
22.49
22.28
21.22
19.43
17.17
14.79
12.56
10.65
9.14
8.01
7.17
6.54
5.96
5.35
4.68
3.88
2.94
1.86
0.71
-0.49
-1.62
-2.66
-3.60
-4.54
-5.67
-7.10
-8.78
-10.38
-11.44
-11.51
-10.42
-8.31
-5.61
-2.88
-0.52
1.30
2.54
3.28
3.61
3.54
3.20
2.89
2.94
3.78
5.58
8.07
10.72
12.83
13.73
13.02
10.66
6.82
2.04
-2.97
-7.33
-10.20
-10.95
-9.44
-6.10
-1.81
2.32
5.32
6.65
6.25
4.53
2.10
-0.37
-2.30
-3.24
-2.97
-1.50
0.96
3.95
6.89
9.23
10.49
10.49
9.31
7.24
4.71
2.10
-0.35
-2.61
-4.76
-6.94
-9.21
-11.44
-13.37
-14.71
-15.30
-15.24
-14.77
-14.25
-13.87
-13.64
-13.38
-12.84
-11.89
-10.59
-9.25
-8.16
-7.56
-7.52
-7.97
-8.73
-9.63
-10.51
-11.22
-11.66
-11.76
-11.49
-10.90
-10.07
-9.10
-8.12
-7.34
-7.13
-7.97
-10.35
-14.50
-20.18
-26.58
-32.49
-36.56
-37.90
-36.17
-31.60
-24.85
-16.60
-7.48
2.22
12.53
24.05
37.90
55.52
78.00
105.16
134.93
163.47
186.44
200.70
205.95
204.99
202.62
203.45
209.96
221.64
235.56
247.63
253.94
251.70
239.43
217.04
185.84
148.21
107.31
66.05
26.42
-10.66
-44.79
-75.29
-100.62
-118.90
-129.23
-132.53
-131.65
-130.18
-130.89
-134.45
-139.57
-144.16
-146.58
-146.65
-145.38
-143.93
-142.64
-140.89
-137.51
-131.89
-124.43
-116.40
-109.15
-103.17
-97.83
-91.77
-83.93
-74.37
-64.36
-55.82
-50.26
-48.13
-48.70
-50.58
-52.45
-53.61
-54.06
-54.35
-55.39
-57.98
-62.78
-69.91
-78.78
-88.17
-96.36
-101.50
-102.01
-96.92
-85.98
-69.70
-49.38
-26.92
-4.59
15.37
31.23
42.19
48.41
50.93
51.22
50.79
50.65
51.18
52.07
52.59
52.00
49.93
46.63
42.77
39.09
35.91
32.89
29.34
24.58
18.48
11.58
4.91
-0.45
-3.70
-4.65
-3.58
-1.07
2.26
5.93
9.63
13.14
16.25
18.81
20.60
21.46
21.19
19.60
16.67
12.53
7.68
2.83
-1.09
-3.39
-3.82
-2.65
-0.57
1.71
3.66
5.10
6.00
6.39
6.24
5.70
5.15
5.03
5.65
6.73
7.39
6.40
2.97
-2.76
-9.57
-15.46
-18.80
-18.73
-15.43
-9.75
-2.70
4.91
12.45
19.24
24.59
27.71
28.22
26.30
22.65
18.16
13.39
8.36
2.67
-4.00
-11.52
-19.08
-25.46
-29.54
-30.72
-29.28
-26.15
-22.51
-19.41
-17.54
-17.09
-17.92
-19.78
-22.15
-24.55
-26.47
-27.58
-27.81
-27.40
-26.80
-26.38
-26.37
-26.61
-26.71
-26.13
-24.34
-20.98
-15.85
-9.01
-0.89
7.65
15.40
21.02
23.48
22.36
18.18
12.23
6.33
2.05
0.34
1.12
3.48
6.13
8.01
8.73
8.69
8.75
9.60
11.41
13.69
15.69
16.92
17.51
18.12
19.62
22.58
27.12
32.95
39.51
46.19
52.27
56.89
58.88
57.10
50.66
39.36
23.86
5.66
-13.27
-30.98
-46.20
-58.60
-68.77
-77.47
-84.85
-89.94
-90.82
-85.55
-73.46
-55.87
-35.68
-16.28
-0.14
12.02
20.93
27.86
33.64
38.12
40.50
40.17
37.28
32.93
28.64
25.72
24.61
24.92
25.74
26.23
26.03
25.38
24.78
24.67
24.98
25.20
24.55
22.39
18.46
13.04
6.81
0.54
-5.08
-9.63
-12.94
-15.01
-15.89
-15.73
-14.67
-12.94
-10.76
-8.42
-6.20
-4.31
-2.88
-2.03
-1.78
-2.18
-3.19
-4.79
-6.96
-9.65
-12.80
-16.22
-19.56
-22.28
-23.79
-23.68
-21.86
-18.64
-14.60
-10.47
-6.82
-3.94
-1.93
-0.70
-0.14
-0.09
-0.40
-0.87
-1.41
-1.99
-2.72
-3.62
-4.53
-5.14
-4.98
-3.91
-2.02
0.15
1.99
3.13
3.54
3.63
3.76
4.13
4.54
4.54
3.77
2.17
0.06
-2.08
-3.80
-4.92
-5.54
-5.82
-5.80
-5.23
-3.75
-1.05
2.83
7.40
11.89
15.53
17.83
18.79
18.77
18.34
18.00
17.93
18.03
17.95
17.42
16.29
14.57
12.49
10.29
8.21
6.37
4.81
3.55
2.56
1.80
1.16
0.46
-0.51
-1.85
-3.52
-5.29
-6.85
-8.05
-8.90
-9.58
-10.43
-11.69
-13.44
-15.68
-18.25
-20.87
-23.14
-24.52
-24.45
-22.57
-18.96
-14.09
-8.72
-3.52
1.20
5.52
9.81
14.29
18.85
23.01
26.17
28.03
28.69
28.61
28.26
27.92
27.53
26.79
25.54
24.01
23.02
23.82
27.75
35.77
48.11
64.06
82.01
99.97
115.95
128.66
137.83
144.24
149.28
154.24
159.79
165.62
170.78
174.03
174.19
170.22
161.46
147.75
129.64
108.37
85.53
62.23
38.52
13.15
-15.57
-48.42
-84.33
-120.41
-153.01
-179.36
-198.65
-211.80
-220.28
-224.85
-225.07
-219.88
-208.84
-192.99
-174.83
-157.33
-142.64
-131.34
-122.51
-114.57
-106.45
-98.12
-90.45
-84.60
-81.19
-79.94
-79.97
-80.24
-80.15
-79.82
-79.84
-80.73
-82.70
-85.31
-87.71
-89.10
-88.93
-87.04
-83.59
-78.79
-72.70
-65.31
-56.66
-47.00
-36.80
-26.62
-16.91
-7.95
0.11
7.26
13.45
18.87
24.04
29.78
36.90
45.69
55.57
65.03
72.45
76.73
77.96
77.43
76.83
77.51
79.83
83.20
86.50
88.76
89.48
88.71
86.76
83.89
80.21
75.80
70.87
65.89
61.58
58.57
57.06
56.68
56.40
54.92
51.24
45.04
36.89
28.11
20.33
14.97
12.85
13.94
17.38
21.74
25.44
27.21
26.51
23.70
19.87
16.46
14.64
14.89
16.79
19.21
20.82
20.75
19.08
16.94
16.01
17.62
21.94
27.84
33.23
36.00
34.92
29.88
21.58
11.06
-0.78
-13.27
-25.54
-36.54
-45.04
-50.10
-51.55
-50.15
-47.35
-44.87
-44.26
-46.35
-51.09
-57.33
-63.13
-66.28
-65.15
-59.33
-49.84
-38.78
-28.40
-20.26
-14.94
-12.01
-10.74
-10.43
-10.68
-11.32
-12.08
-12.66
-12.68
-11.93
-10.20
-7.21
-2.36
5.12
15.59
28.42
41.78
53.14
60.34
62.67
61.20
58.17
55.71
54.68
54.43
53.53
50.83
46.21
40.45
34.35
28.05
20.97
12.61
3.39
-4.89
-9.52
-8.13
0.30
14.88
33.17
52.12
68.90
81.39
88.26
88.93
83.34
72.14
56.45
37.67
17.11
-4.45
-26.65
-49.46
-73.03
-97.88
-124.91
-155.01
-187.74
-220.07
-246.05
-258.19
-250.44
-221.16
-174.47
-118.67
-63.00
-14.34
24.07
51.72
68.81
75.05
69.97
54.16
30.41
3.28
-22.48
-43.81
-60.31
-73.51
-85.42
-97.02
-107.59
-114.90
-116.15
-108.81
-91.50
-64.68
-30.78
6.49
43.29
77.11
107.34
134.60
159.46
181.05
196.79
203.37
198.59
182.90
159.61
133.49
108.54
86.22
65.33
43.20
17.60
-11.78
-43.11
-73.26
-99.18
-118.92
-131.93
-138.62
-139.86
-136.22
-127.91
-114.51
-95.37
-70.01
-38.82
-3.42
33.33
67.87
96.89
118.07
130.34
133.72
128.97
117.42
101.30
84.05
70.02
63.33
66.45
79.08
98.39
120.59
142.75
164.04
185.65
209.14
234.68
259.84
279.76
288.49
281.01
254.71
209.96
150.04
80.55
8.47
-59.46
-118.07
-165.33
-203.01
-236.13
-271.02
-312.58
-361.84
-415.07
-464.92
-503.02
-522.93
-522.13
-502.41
-468.44
-425.88
-379.65
-332.92
-287.38
-243.58
-201.65
-161.66
-123.71
-87.71
-53.19
-19.53
13.98
47.89
82.36
117.29
152.79
189.83
229.52
272.33
316.71
358.49
391.72
410.76
412.67
398.49
372.91
342.06
311.19
283.08
258.08
235.16
213.35
192.48
173.06
155.59
140.03
125.79
112.13
98.59
85.20
72.28
60.37
49.73
40.26
31.49
22.75
13.58
4.07
-4.98
-12.37
-16.91
-18.18
-16.77
-14.19
-12.35
-12.91
-16.73
-23.63
-32.59
-42.07
-50.44
-56.22
-58.17
-55.51
-47.94
-35.84
-20.21
-2.48
15.86
33.53
49.70
63.96
76.02
85.58
92.29
95.89
96.59
95.09
92.35
89.02
85.09
79.74
71.79
60.46
45.86
29.17
12.10
-3.67
-17.31
-29.04
-39.97
-51.46
-64.44
-79.03
-94.27
-108.54
-120.02
-127.55
-131.13
-131.89
-131.71
-132.26
-134.54
-138.46
-143.18
-147.47
-150.07
-149.73
-145.39
-136.73
-124.66
-111.73
-101.44
-96.88
-98.96
-105.72
-112.96
-116.15
-112.70
-102.94
-89.64
-76.21
-64.88
-55.79
-47.55
-38.62
-28.53
-18.28
-9.67
-4.31
-2.86
-4.84
-9.03
-14.05
-19.01
-23.68
-28.29
-33.24
-38.78
-44.82
-50.95
-56.64
-61.29
-64.30
-65.13
-63.29
-58.45
-50.54
-39.86
-27.04
-13.04
1.04
14.02
24.81
32.49
36.47
36.65
33.49
27.98
21.41
15.10
10.06
6.81
5.31
5.08
5.45
5.81
5.76
5.28
4.67
4.37
4.76
5.97
7.81
9.75
11.17
11.49
10.40
7.93
4.54
1.09
-1.35
-1.68
0.84
6.44
14.56
24.13
33.81
42.38
49.09
53.75
56.57
57.98
58.48
58.40
58.01
57.48
56.82
55.93
54.50
52.21
48.86
44.51
39.49
34.26
29.21
24.56
20.36
16.53
13.01
9.73
6.58
3.47
0.20
-3.30
-7.02
-10.66
-13.77
-15.70
-15.77
-13.53
-8.94
-2.60
4.45
10.88
15.63
18.20
18.85
18.33
17.45
16.62
15.72
14.31
12.05
8.96
5.59
2.73
1.00
0.59
1.20
2.24
3.21
3.94
4.54
5.27
6.31
7.58
8.91
10.17
11.33
12.53
13.86
15.19
16.10
16.14
14.91
12.45
9.06
5.28
1.69
-1.39
-3.83
-5.75
-7.29
-8.67
-9.93
-11.13
-12.26
-13.30
-14.20
-14.96
-15.67
-16.42
-17.44
-18.90
-20.87
-23.22
-25.68
-27.85
-29.35
-30.12
-30.41
-30.88
-32.33
-35.47
-40.61
-47.30
-54.24
-59.38
-60.56
-56.11
-45.59
-30.06
-11.88
6.03
21.10
31.79
37.93
40.31
40.20
38.75
36.72
34.43
31.95
29.30
26.44
23.45
20.36
17.28
14.33
11.54
8.94
6.45
3.99
1.48
-0.96
-3.13
-4.81
-5.93
-6.59
-7.08
-7.75
-8.90
-10.74
-13.28
-16.35
-19.39
-21.32
-20.61
-15.61
-5.27
10.02
28.11
45.47
58.21
63.55
60.83
51.54
38.63
25.13
13.10
3.17
-4.97
-11.97
-18.04
-22.87
-25.95
-27.03
-26.46
-25.11
-24.02
-23.90
-24.95
-26.89
-29.15
-31.25
-33.02
-34.64
-36.58
-39.34
-43.38
-48.96
-56.09
-64.48
-73.45
-81.78
-87.87
-89.99
-86.72
-77.46
-62.76
-44.24
-24.25
-5.23
10.91
23.14
31.37
36.15
38.32
38.66
37.73
35.88
33.39
30.58
27.90
25.81
24.51
23.86
23.40
22.53
20.78
18.05
14.55
10.74
7.04
3.70
0.72
-2.06
-4.89
-8.01
-11.62
-15.70
-20.05
-24.08
-26.92
-27.60
-25.33
-19.86
-11.62
-1.64
8.76
18.42
26.57
32.91
37.45
40.32
41.57
41.23
39.37
36.19
32.07
27.54
23.14
19.35
16.52
14.80
14.17
14.32
14.86
15.29
15.20
14.36
12.79
10.78
8.76
7.21
6.44
6.52
7.24
8.20
8.99
9.26
8.88
7.81
6.17
4.02
1.46
-1.46
-4.79
-8.57
-12.89
-17.68
-22.63
-27.02
-29.81
-29.96
-26.71
-20.05
-10.72
-0.05
10.51
19.77
27.13
32.46
35.90
37.56
37.41
35.43
31.72
26.70
21.06
15.58
10.89
7.25
4.59
2.65
1.16
-0.02
-0.93
-1.51
-1.73
-1.66
-1.48
-1.52
-2.14
-3.70
-6.46
-10.52
-15.68
-21.37
-26.66
-30.41
-31.55
-29.36
-23.76
-15.35
-5.28
5.07
14.52
22.32
28.21
32.23
34.53
35.15
34.08
31.39
27.33
22.45
17.45
13.04
9.66
7.40
5.99
4.99
4.04
2.84
1.36
-0.34
-2.12
-3.87
-5.56
-7.24
-9.03
-11.14
-13.85
-17.37
-21.78
-26.74
-31.54
-35.05
-36.07
-33.68
-27.60
-18.41
-7.32
4.08
14.39
22.71
28.71
32.56
34.59
35.20
34.63
33.10
30.79
27.90
24.70
21.45
18.42
15.82
13.79
12.32
11.24
10.25
9.04
7.41
5.29
2.83
0.18
-2.51
-5.19
-7.95
-10.95
-14.36
-18.33
-22.92
-27.95
-32.99
-37.24
-39.64
-39.15
-35.06
-27.38
-16.88
-4.96
6.77
16.92
24.66
29.78
32.59
33.61
33.36
32.22
30.38
27.95
25.04
21.86
18.69
15.81
13.43
11.65
10.47
9.72
9.20
8.64
7.79
6.40
4.30
1.43
-2.12
-6.10
-10.19
-14.04
-17.39
-20.20
-22.68
-25.20
-28.22
-31.87
-35.78
-38.99
-40.13
-37.96
-31.86
-22.18
-10.21
2.31
13.66
22.72
29.08
33.01
34.94
35.30
34.34
32.23
29.26
25.80
22.37
19.38
17.09
15.40
14.08
12.84
11.59
10.45
9.57
9.01
8.57
7.86
6.42
4.05
0.87
-2.69
-6.02
-8.69
-10.59
-11.98
-13.33
-15.18
-17.92
-21.72
-26.42
-31.37
-35.53
-37.54
-36.26
-31.15
-22.62
-11.95
-0.88
8.98
16.67
21.96
25.22
26.99
27.61
27.32
26.22
24.51
22.48
20.48
18.71
17.24
15.97
14.77
13.57
12.43
11.43
10.66
10.02
9.32
8.26
6.64
4.37
1.56
-1.54
-4.62
-7.37
-9.66
-11.49
-13.13
-14.96
-17.46
-21.01
-25.57
-30.58
-34.93
-37.27
-36.40
-31.82
-23.87
-13.71
-2.95
6.86
14.68
20.10
23.27
24.66
24.75
23.94
22.51
20.63
18.47
16.17
13.91
11.80
9.97
8.51
7.48
6.94
6.78
6.82
6.75
6.29
5.22
3.50
1.19
-1.60
-4.66
-7.81
-10.79
-13.39
-15.47
-17.16
-18.87
-21.14
-24.38
-28.43
-32.51
-35.28
-35.36
-31.90
-24.89
-15.34
-4.84
4.96
12.82
18.28
21.52
23.13
23.71
23.66
23.23
22.45
21.36
20.06
18.64
17.19
15.73
14.30
12.86
11.57
10.49
9.70
9.14
8.55
7.58
5.88
3.28
-0.14
-4.01
-7.92
-11.44
-14.36
-16.71
-18.73
-20.80
-23.31
-26.54
-30.43
-34.55
-37.89
-39.21
-37.38
-31.84
-22.94
-11.90
-0.45
9.79
17.77
23.20
26.37
27.75
27.83
26.90
25.21
23.01
20.58
18.17
15.96
13.97
12.15
10.45
8.92
7.69
6.91
6.67
6.85
7.17
7.21
6.61
5.17
2.93
0.16
-2.83
-5.72
-8.30
-10.53
-12.52
-14.51
-16.86
-19.92
-23.83
-28.34
-32.65
-35.51
-35.62
-32.13
-24.96
-14.99
-3.73
7.09
16.07
22.48
26.25
27.79
27.70
26.59
24.80
22.61
20.20
17.74
15.50
13.72
12.55
11.93
11.66
11.43
11.03
10.46
9.82
9.19
8.47
7.41
5.69
3.19
0.02
-3.40
-6.58
-9.21
-11.30
-13.08
-14.96
-17.35
-20.53
-24.58
-29.27
-33.95
-37.67
-39.27
-37.75
-32.69
-24.47
-14.20
-3.42
6.43
14.34
19.90
23.21
24.60
24.47
23.11
20.85
18.08
15.27
12.88
11.22
10.31
9.91
9.57
8.88
7.64
5.94
4.08
2.42
1.17
0.26
-0.61
-1.84
-3.71
-6.18
-8.92
-11.47
-13.46
-14.83
-15.85
-16.98
-18.67
-21.09
-24.07
-27.08
-29.35
-30.06
-28.55
-24.45
-17.83
-9.35
-0.05
8.80
16.08
21.15
23.86
24.55
23.79
22.15
20.04
17.78
15.56
13.53
11.80
10.36
9.15
8.11
7.13
6.21
5.41
4.72
4.15
3.59
2.90
1.96
0.69
-0.97
-3.05
-5.47
-8.21
-11.16
-14.22
-17.35
-20.59
-24.01
-27.66
-31.31
-34.45
-36.23
-35.70
-32.21
-25.73
-16.95
-7.11
2.39
10.45
16.53
20.61
23.07
24.31
24.59
24.14
23.01
21.38
19.45
17.38
15.26
13.12
10.94
8.74
6.70
4.97
3.72
2.95
2.47
1.93
1.04
-0.41
-2.40
-4.76
-7.31
-9.85
-12.30
-14.63
-16.89
-19.16
-21.62
-24.52
-27.90
-31.53
-34.65
-36.14
-34.90
-30.21
-22.29
-12.17
-1.50
8.19
15.80
20.94
23.85
25.01
24.94
23.96
22.26
20.06
17.61
15.16
12.89
10.81
8.86
7.00
5.32
4.10
3.62
3.94
4.74
5.37
5.13
3.52
0.53
-3.39
-7.47
-11.03
-13.70
-15.51
-16.88
-18.37
-20.53
-23.57
-27.25
-30.86
-33.31
-33.47
-30.56
-24.49
-15.91
-6.15
3.35
11.39
17.29
20.95
22.64
22.75
21.62
19.50
16.57
13.10
9.42
5.95
3.06
1.02
-0.07
-0.39
-0.23
0.02
-0.01
-0.55
-1.67
-3.26
-5.16
-7.20
-9.27
-11.33
-13.47
-15.79
-18.41
-21.47
-24.94
-28.67
-32.20
-34.75
-35.41
-33.42
-28.42
-20.75
-11.41
-1.78
6.79
13.36
17.57
19.68
20.20
19.74
18.73
17.36
15.69
13.73
11.53
9.21
7.02
5.22
4.08
3.69
3.94
4.56
5.19
5.54
5.44
4.90
4.01
2.81
1.30
-0.66
-3.15
-6.22
-9.84
-13.92
-18.28
-22.57
-26.24
-28.42
-28.27
-25.15
-19.12
-10.85
-1.63
7.11
14.26
19.30
22.38
23.96
24.59
24.59
24.11
23.14
21.72
19.99
18.17
16.46
14.97
13.67
12.37
10.92
9.18
7.13
4.85
2.42
-0.02
-2.39
-4.64
-6.75
-8.77
-10.73
-12.73
-14.85
-17.21
-19.87
-22.84
-25.86
-28.36
-29.53
-28.53
-24.85
-18.49
-10.22
-1.23
7.20
14.01
18.80
21.64
22.91
23.08
22.53
21.49
20.13
18.61
17.04
15.52
14.08
12.72
11.46
10.38
9.60
9.17
9.09
9.18
9.19
8.85
7.96
6.41
4.23
1.54
-1.43
-4.43
-7.32
-10.12
-13.01
-16.24
-19.97
-24.01
-27.77
-30.30
-30.57
-27.80
-21.91
-13.54
-3.84
5.84
14.31
20.80
24.96
26.86
26.79
25.22
22.72
19.86
17.15
14.88
13.09
11.59
10.19
8.78
7.45
6.31
5.55
5.09
4.74
4.23
3.33
1.99
0.26
-1.71
-3.78
-5.88
-8.05
-10.27
-12.57
-14.96
-17.44
-20.13
-23.21
-26.71
-30.43
-33.80
-35.91
-35.75
-32.64
-26.46
-17.85
-7.97
1.77
10.15
16.43
20.35
22.12
22.12
20.92
19.06
17.04
15.30
14.03
13.15
12.33
11.09
9.03
6.21
3.14
0.66
-0.43
0.07
1.56
2.68
1.92
-1.68
-7.91
-15.41
-22.30
-27.05
-29.38
-30.32
-31.82
-35.88
-43.78
-55.73
-70.89
-87.57
-103.56
-116.54
-124.52
-126.75
-124.45
-121.09
-121.54
-130.00
-147.74
-171.78
-195.83
-212.87
-218.66
-214.02
-204.68
-198.65
-202.30
-217.39
-240.10
-262.99
-278.10
-280.24
-268.50
-245.62
-216.23
-184.61
-153.75
-125.15
-99.49
-77.03
-57.65
-40.45
-23.53
-4.40
19.10
47.70
80.27
114.13
146.10
173.42
194.40
208.53
216.26
218.83
218.08
216.29
215.69
217.94
223.77
233.09
245.41
260.07
276.38
293.23
308.84
320.73
326.33
323.85
313.01
295.11
272.41
246.92
219.63
190.51
159.29
126.70
95.02
67.52
47.01
34.37
27.98
24.53
20.74
14.88
7.42
0.26
-4.84
-7.41
-8.61
-10.32
-14.07
-20.08
-27.30
-34.05
-38.81
-40.81
-39.95
-36.65
-31.47
-24.90
-17.34
-9.24
-1.11
6.44
12.76
17.43
20.36
21.83
22.46
22.93
23.78
25.12
26.66
27.82
28.07
27.16
25.24
22.84
20.69
19.56
20.12
22.77
27.50
33.63
39.80
44.01
44.15
38.54
26.47
8.46
-13.89
-38.31
-62.39
-83.87
-100.96
-112.71
-119.32
-122.25
-123.79
-126.12
-130.30
-135.75
-140.52
-142.29
-139.61
-132.58
-122.70
-111.97
-101.72
-91.90
-80.96
-66.45
-46.06
-18.52
15.70
54.33
93.67
129.37
157.53
175.64
183.12
181.26
172.73
160.68
147.91
136.15
125.87
116.45
106.65
95.14
80.85
63.27
42.36
18.73
-6.27
-30.38
-50.75
-64.47
-69.54
-65.53
-53.76
-36.74
-17.34
2.09
19.93
35.26
47.51
56.27
61.32
62.83
61.36
57.69
52.41
45.73
37.54
27.75
16.70
5.29
-5.28
-14.01
-20.44
-24.84
-28.03
-30.85
-33.83
-37.02
-40.14
-42.83
-45.01
-46.90
-48.91
-51.41
-54.47
-57.93
-61.44
-64.63
-67.15
-68.66
-68.75
-66.94
-62.87
-56.52
-48.31
-39.06
-29.72
-21.14
-13.83
-7.93
-3.35
0.08
2.53
4.15
5.01
5.15
4.52
3.05
0.60
-2.90
-7.42
-12.86
-18.95
-25.33
-31.49
-36.90
-41.04
-43.64
-44.64
-44.22
-42.62
-39.97
-36.23
-31.26
-25.07
-17.94
-10.54
-3.71
1.87
5.88
8.44
10.02
11.22
12.52
14.22
16.35
18.76
21.21
23.43
25.21
26.38
26.90
26.82
26.26
25.32
24.17
22.94
21.74
20.69
19.78
18.91
18.00
16.93
15.70
14.41
13.21
12.15
11.17
10.03
8.50
6.44
3.91
1.10
-1.73
-4.34
-6.63
-8.57
-10.28
-11.88
-13.61
-15.66
-18.17
-21.07
-23.94
-26.13
-26.83
-25.45
-21.82
-16.35
-9.86
-3.27
2.68
7.59
11.39
14.19
16.14
17.36
17.87
17.75
17.10
16.09
14.89
13.71
12.66
11.83
11.29
11.01
10.94
10.96
10.89
10.54
9.70
8.27
6.24
3.69
0.81
-2.16
-4.96
-7.44
-9.53
-11.40
-13.30
-15.57
-18.39
-21.61
-24.63
-26.58
-26.65
-24.33
-19.71
-13.43
-6.56
-0.11
5.11
8.82
11.12
12.35
12.92
13.10
13.04
12.77
12.33
11.83
11.38
11.09
10.92
10.81
10.65
10.40
10.06
9.69
9.28
8.75
7.97
6.77
5.14
3.11
0.80
-1.70
-4.31
-6.98
-9.70
-12.46
-15.30
-18.21
-21.13
-23.83
-25.83
-26.49
-25.20
-21.70
-16.21
-9.53
-2.77
3.03
7.26
9.91
11.43
12.39
13.21
13.96
14.45
14.46
13.88
12.87
11.74
10.72
9.95
9.38
8.83
8.09
7.06
5.73
4.17
2.57
0.96
-0.65
-2.37
-4.33
-6.65
-9.33
-12.29
-15.42
-18.64
-22.00
-25.53
-29.06
-32.10
-33.91
-33.69
-31.03
-26.05
-19.38
-11.99
-4.77
1.73
7.38
12.39
16.98
21.21
25.07
28.46
31.28
33.58
35.42
36.80
37.69
37.89
37.18
35.45
32.72
29.11
24.94
20.48
15.96
11.53
7.25
3.14
-0.78
-4.51
-8.05
-11.39
-14.62
-17.82
-21.04
-24.29
-27.30
-29.69
-30.85
-30.24
-27.52
-22.81
-16.71
-10.06
-3.83
1.29
4.96
7.24
8.44
8.94
9.01
8.76
8.28
7.60
6.84
6.14
5.63
5.37
5.33
5.44
5.58
5.78
6.00
6.24
6.37
6.14
5.35
3.83
1.68
-0.90
-3.57
-6.07
-8.30
-10.32
-12.33
-14.51
-17.02
-19.85
-22.77
-25.28
-26.75
-26.57
-24.39
-20.32
-14.86
-8.81
-2.92
2.26
6.51
9.85
12.40
14.23
15.29
15.61
15.21
14.24
12.94
11.53
10.15
8.90
7.75
6.74
5.94
5.42
5.21
5.25
5.31
5.16
4.57
3.43
1.83
-0.03
-1.87
-3.45
-4.71
-5.75
-6.81
-8.20
-10.14
-12.69
-15.69
-18.85
-21.69
-23.74
-24.58
-23.88
-21.52
-17.65
-12.62
-7.09
-1.76
2.87
6.52
9.26
11.31
12.92
14.17
15.08
15.49
15.34
14.73
13.82
12.88
12.04
11.34
10.67
9.95
9.07
8.06
7.00
5.96
4.95
3.87
2.54
0.88
-1.06
-3.08
-4.94
-6.49
-7.80
-9.07
-10.57
-12.52
-14.91
-17.60
-20.27
-22.53
-23.97
-24.18
-22.78
-19.63
-14.91
-9.15
-3.18
2.19
6.42
9.33
11.09
12.04
12.45
12.42
11.94
11.00
9.77
8.49
7.45
6.83
6.62
6.63
6.61
6.34
5.77
4.96
4.04
3.07
2.07
0.93
-0.45
-2.12
-3.98
-5.92
-7.77
-9.52
-11.28
-13.24
-15.58
-18.29
-21.08
-23.41
-24.72
-24.51
-22.56
-19.00
-14.30
-9.09
-4.02
0.44
3.99
6.62
8.39
9.45
9.91
9.89
9.49
8.86
8.15
7.46
6.86
6.41
6.10
5.95
5.96
6.08
6.25
6.33
6.14
5.51
4.31
2.43
-0.15
-3.31
-6.84
-10.41
-13.66
-16.36
-18.49
-20.15
-21.57
-22.89
-24.07
-24.81
-24.61
-23.01
-19.77
-15.03
-9.29
-3.22
2.46
7.20
10.72
13.02
14.29
14.85
15.08
15.18
15.25
15.20
14.85
14.03
12.71
11.03
9.24
7.66
6.44
5.67
5.26
5.08
4.91
4.59
3.95
2.82
1.11
-1.21
-4.03
-7.11
-10.21
-13.05
-15.44
-17.31
-18.75
-19.91
-20.96
-21.83
-22.22
-21.71
-19.84
-16.47
-11.81
-6.52
-1.31
3.21
6.82
9.64
11.97
14.01
15.77
17.11
17.82
17.86
17.33
16.43
15.33
14.13
12.85
11.48
10.13
8.91
7.98
7.45
7.25
7.17
6.93
6.23
4.86
2.80
0.28
-2.33
-4.65
-6.40
-7.57
-8.39
-9.20
-10.43
-12.33
-14.93
-17.98
-20.97
-23.23
-24.10
-23.12
-20.16
-15.50
-9.77
-3.76
1.84
6.60
10.39
13.30
15.50
17.09
18.14
18.72
18.89
18.84
18.76
18.78
18.91
19.07
19.00
18.49
17.32
15.45
13.00
10.22
7.41
4.82
2.58
0.64
-1.15
-2.95
-4.83
-6.77
-8.69
-10.50
-12.18
-13.81
-15.54
-17.48
-19.67
-22.07
-24.42
-26.35
-27.38
-27.07
-25.17
-21.73
-17.17
-12.10
-7.23
-3.06
0.19
2.62
4.50
6.04
7.36
8.41
9.06
9.24
9.02
8.62
8.31
8.34
8.71
9.30
9.84
10.11
10.03
9.67
9.17
8.60
7.94
7.06
5.80
4.13
2.16
0.12
-1.79
-3.46
-4.92
-6.32
-7.87
-9.80
-12.22
-15.10
-18.22
-21.08
-23.03
-23.42
-21.86
-18.34
-13.34
-7.62
-1.99
2.93
6.87
9.84
12.03
13.62
14.66
15.16
15.10
14.55
13.69
12.69
11.69
10.70
9.61
8.35
6.94
5.55
4.42
3.71
3.44
3.39
3.21
2.65
1.62
0.28
-1.12
-2.38
-3.48
-4.56
-5.85
-7.52
-9.64
-12.17
-14.89
-17.49
-19.52
-20.45
-19.78
-17.21
-12.84
-7.20
-1.06
4.67
9.30
12.51
14.37
15.22
15.49
15.49
15.38
15.11
14.53
13.56
12.15
10.46
8.69
7.03
5.54
4.14
2.59
0.50
-2.50
-6.86
-12.84
-20.41
-29.04
-37.74
-45.28
-50.53
-52.99
-53.03
-51.88
-51.22
-52.56
-56.70
-63.27
-70.62
-75.88
-75.75
-67.32
-49.33
-22.90
8.46
39.85
66.54
85.39
95.51
97.87
94.48
87.26
77.63
66.64
55.30
44.84
36.49
30.96
28.13
27.21
27.14
27.05
26.56
25.71
24.82
24.22
24.32
25.63
28.71
34.04
41.53
50.49
59.45
66.78
71.23
72.34
70.39
65.82
58.64
48.04
32.79
11.74
-15.20
-46.73
-80.56
-114.15
-145.29
-172.18
-192.96
-205.53
-208.12
-200.31
-184.03
-163.52
-143.77
-128.09
-116.24
-104.18
-86.07
-57.30
-17.19
30.28
77.97
118.40
146.31
159.90
160.43
150.79
134.17
113.18
89.84
65.91
43.27
23.75
8.77
-1.14
-6.48
-8.54
-8.87
-8.68
-8.43
-7.93
-6.62
-4.06
-0.20
4.51
9.25
13.16
15.59
16.32
15.57
13.90
11.95
10.32
9.33
8.96
8.89
8.69
8.01
6.82
5.39
4.18
3.55
3.60
4.02
4.25
3.78
2.33
0.07
-2.63
-5.31
-7.73
-9.84
-11.85
-14.00
-16.55
-19.60
-23.10
-26.80
-30.24
-32.79
-33.77
-32.67
-29.34
-24.05
-17.54
-10.67
-4.22
1.33
5.88
9.56
12.58
15.06
16.96
18.16
18.62
18.47
18.00
17.54
17.26
17.08
16.72
15.82
14.24
12.18
10.14
8.66
8.09
8.22
8.47
8.08
6.49
3.59
-0.20
-4.26
-7.94
-10.89
-13.13
-14.97
-16.79
-19.01
-21.98
-25.95
-30.98
-36.77
-42.48
-46.95
-49.00
-47.82
-43.47
-36.79
-29.08
-21.57
-15.01
-9.55
-4.97
-1.02
2.28
4.70
6.07
6.73
7.64
10.33
16.41
26.94
41.88
59.86
78.48
94.88
106.51
111.69
109.90
101.67
88.27
71.30
52.47
33.43
15.73
0.61
-11.08
-19.05
-23.58
-25.40
-25.52
-24.91
-24.37
-24.43
-25.24
-26.69
-28.41
-29.88
-30.53
-29.84
-27.56
-23.73
-18.72
-13.10
-7.49
-2.38
1.94
5.45
8.30
10.65
12.67
14.38
15.78
16.83
17.50
17.80
17.73
17.30
16.49
15.32
13.82
12.07
10.18
8.20
6.19
4.15
2.12
0.13
-1.75
-3.51
-5.22
-6.89
-8.56
-10.19
-11.67
-12.92
-13.97
-14.96
-16.15
-17.79
-20.00
-22.65
-25.39
-27.68
-28.95
-28.77
-26.96
-23.68
-19.35
-14.54
-9.74
-5.31
-1.41
1.91
4.63
6.72
8.13
8.86
9.03
8.85
8.61
8.56
8.79
9.19
9.54
9.61
9.26
8.53
7.58
6.63
5.83
5.20
4.59
3.81
2.72
1.26
-0.47
-2.30
-4.06
-5.66
-7.10
-8.48
-9.97
-11.73
-13.85
-16.25
-18.75
-20.95
-22.42
-22.71
-21.53
-18.79
-14.73
-9.82
-4.62
0.36
4.77
8.43
11.30
13.42
14.88
15.78
16.20
16.25
15.96
15.35
14.38
13.08
11.59
10.09
8.76
7.65
6.74
5.97
5.34
4.90
4.77
4.95
5.22
5.26
4.70
3.33
1.23
-1.29
-3.82
-6.03
-7.84
-9.43
-11.10
-13.14
-15.60
-18.30
-20.78
-22.45
-22.77
-21.44
-18.53
-14.43
-9.78
-5.27
-1.43
1.48
3.46
4.69
5.46
5.99
6.43
6.80
7.05
7.11
7.00
6.75
6.45
6.23
6.12
6.11
6.15
6.11
6.01
5.84
5.60
5.26
4.68
3.70
2.24
0.36
-1.72
-3.67
-5.27
-6.56
-7.70
-9.02
-10.84
-13.30
-16.31
-19.59
-22.56
-24.60
-25.18
-23.95
-20.98
-16.67
-11.63
-6.47
-1.71
2.41
5.78
8.44
10.44
11.84
12.68
13.04
12.97
12.50
11.65
10.49
9.13
7.75
6.54
5.59
4.97
4.65
4.52
4.49
4.42
4.22
3.80
3.08
2.01
0.61
-0.99
-2.67
-4.26
-5.70
-7.09
-8.66
-10.63
-13.13
-15.88
-18.28
-19.60
-19.22
-16.95
-13.15
-8.61
-4.12
-0.34
2.51
4.49
5.80
6.60
6.92
6.66
5.75
4.25
2.37
0.42
-1.31
-2.66
-3.66
-4.46
-5.32
-6.45
-8.01
-10.18
-13.02
-16.60
-20.91
-25.76
-30.84
-35.91
-40.86
-45.91
-51.42
-57.57
-64.00
-69.72
-73.35
-73.65
-70.08
-62.96
-53.25
-42.16
-30.51
-18.70
-6.65
5.88
19.04
32.72
46.65
60.32
73.07
84.16
92.77
98.27
100.32
98.92
94.32
87.03
77.66
66.93
55.69
44.81
35.04
26.89
20.41
15.32
11.09
7.24
3.49
-0.09
-3.17
-5.41
-6.56
-6.69
-6.16
-5.55
-5.44
-6.17
-7.73
-9.74
-11.57
-12.49
-11.93
-9.62
-5.66
-0.57
4.97
10.19
14.43
17.26
18.60
18.58
17.46
15.53
13.01
10.09
6.94
3.78
0.87
-1.51
-3.23
-4.29
-4.83
-5.02
-5.02
-4.92
-4.76
-4.63
-4.62
-4.92
-5.63
-6.77
-8.23
-9.78
-11.19
-12.33
-13.17
-13.85
-14.56
-15.48
-16.72
-18.23
-19.86
-21.25
-22.02
-21.82
-20.41
-17.74
-14.00
-9.56
-4.94
-0.64
2.97
5.71
7.60
8.78
9.48
9.92
10.21
10.39
10.45
10.36
10.13
9.84
9.58
9.45
9.46
9.50
9.43
9.13
8.53
7.66
6.60
5.40
4.05
2.50
0.75
-1.12
-2.94
-4.54
-5.88
-7.14
-8.61
-10.60
-13.28
-16.49
-19.81
-22.62
-24.30
-24.35
-22.62
-19.29
-14.80
-9.77
-4.73
-0.13
3.87
7.23
10.01
12.19
13.74
14.59
14.74
14.32
13.52
12.59
11.66
10.76
9.79
8.57
7.04
5.22
3.26
1.37
-0.31
-1.69
-2.86
-3.97
-5.20
-6.68
-8.39
-10.22
-11.97
-13.46
-14.57
-15.28
-15.70
-16.02
-16.55
-17.59
-19.31
-21.69
-24.39
-26.82
-28.29
-28.23
-26.43
-23.11
-18.83
-14.25
-9.92
-6.12
-2.91
-0.19
2.11
4.00
5.42
6.27
6.57
6.45
6.10
5.76
5.57
5.57
5.72
5.94
6.22
6.60
7.21
8.24
9.71
11.54
13.43
14.98
15.78
15.46
13.87
11.01
7.07
2.32
-2.93
-8.43
-14.05
-19.77
-25.70
-31.93
-38.53
-45.27
-51.71
-57.09
-60.56
-61.44
-59.48
-54.99
-48.73
-41.69
-34.65
-28.10
-22.10
-16.46
-10.96
-5.50
-0.11
5.10
10.04
14.66
18.92
22.73
25.95
28.40
29.99
30.73
30.82
30.51
30.04
29.53
28.95
28.25
27.45
26.84
26.81
27.72
29.60
32.10
34.63
36.56
37.56
37.54
36.63
34.86
32.17
28.51
24.03
19.26
14.99
11.97
10.58
10.69
11.74
13.06
14.24
15.25
16.42
18.13
20.58
23.63
26.90
29.97
32.55
34.57
36.08
37.13
37.60
37.29
36.12
34.23
32.11
30.18
28.50
26.38
22.62
16.00
6.01
-6.79
-21.01
-35.06
-47.99
-59.75
-70.87
-81.71
-91.91
-100.27
-105.43
-106.62
-103.85
-97.38
-86.77
-70.26
-45.41
-10.61
33.32
82.48
130.85
172.33
202.77
220.89
227.80
225.79
217.09
203.43
186.34
167.62
149.38
133.63
121.60
113.38
107.97
103.86
99.75
95.11
90.59
87.89
89.09
95.53
106.61
119.17
128.03
127.73
114.66
88.56
52.64
12.02
-28.36
-65.66
-99.64
-131.85
-164.01
-196.67
-228.81
-258.12
-281.76
-296.77
-300.41
-290.37
-265.42
-226.21
-175.72
-119.07
-62.30
-10.66
32.70
67.28
94.63
117.18
137.00
155.06
171.05
183.74
191.54
193.01
187.39
174.76
156.13
133.17
107.72
81.51
55.76
31.20
8.05
-13.73
-34.30
-53.71
-71.78
-88.18
-102.54
-114.66
-124.50
-132.19
-137.69
-140.88
-141.71
-140.52
-138.29
-136.44
-136.54
-139.79
-146.83
-157.68
-171.88
-188.52
-205.95
-221.63
-232.19
-234.20
-225.29
-205.18
-176.14
-142.41
-108.82
-79.27
-55.79
-38.40
-25.82
-16.40
-8.79
-2.21
3.72
9.20
14.45
19.53
24.21
27.96
30.01
29.71
26.86
21.96
16.16
11.04
8.20
8.82
13.27
20.99
30.69
40.72
49.60
56.30
60.48
62.27
62.11
60.47
57.75
54.25
50.21
45.91
41.63
37.67
34.24
31.45
29.22
27.34
25.43
23.08
19.95
15.92
11.20
6.16
1.33
-2.97
-6.60
-9.74
-12.73
-15.96
-19.76
-24.20
-29.08
-33.83
-37.63
-39.44
-38.45
-34.24
-27.06
-17.83
-7.83
1.65
9.77
16.23
21.30
25.41
28.95
32.04
34.48
35.97
36.23
35.15
32.94
30.01
26.94
24.21
22.17
20.80
19.91
19.19
18.41
17.46
16.17
14.30
11.26
6.38
-0.90
-10.63
-22.23
-34.55
-46.21
-55.96
-62.78
-66.06
-65.32
-60.25
-50.77
-37.32
-20.99
-3.52
13.06
26.99
37.18
43.43
46.28
46.57
45.12
42.47
38.84
34.29
28.91
22.94
16.82
11.10
6.31
2.79
0.61
-0.46
-0.83
-0.99
-1.39
-2.32
-3.95
-6.30
-9.20
-12.33
-15.30
-17.79
-19.66
-21.12
-22.59
-24.58
-27.49
-31.37
-35.91
-40.30
-43.48
-44.29
-41.78
-35.59
-26.13
-14.57
-2.58
8.17
16.48
21.87
24.62
25.45
25.12
24.21
23.05
21.72
20.23
18.64
17.00
15.41
14.01
12.94
12.28
12.10
12.32
12.77
13.15
13.15
12.53
11.17
9.10
6.45
3.44
0.31
-2.77
-5.68
-8.45
-11.34
-14.72
-18.84
-23.55
-28.11
-31.21
-31.45
-27.82
-20.23
-9.61
2.44
14.18
24.33
32.32
38.23
42.44
45.39
47.41
48.68
49.32
49.44
49.15
48.56
47.81
46.92
45.95
44.87
43.63
42.14
40.21
37.56
33.85
28.72
21.95
13.54
3.87
-6.45
-16.68
-26.23
-34.80
-42.39
-49.20
-55.45
-61.22
-66.27
-70.08
-71.88
-70.95
-66.93
-60.14
-51.57
-42.63
-34.76
-28.87
-25.30
-23.77
-23.74
-24.74
-26.46
-28.74
-31.19
-33.27
-34.22
-33.39
-30.45
-25.60
-19.55
-13.35
-8.01
-4.22
-2.18
-1.56
-1.77
-2.21
-2.52
-2.69
-2.97
-3.71
-5.15
-7.41
-10.44
-14.06
-17.91
-21.30
-23.30
-22.78
-18.96
-11.71
-1.77
9.41
20.10
28.92
35.22
39.08
41.09
41.91
41.94
41.33
40.04
38.08
35.64
33.02
30.49
28.18
25.96
23.58
20.75
17.39
13.68
10.04
6.95
4.69
3.20
2.06
0.66
-1.50
-4.73
-8.97
-13.87
-18.82
-23.00
-25.53
-25.60
-22.66
-16.72
-8.46
0.90
9.95
17.58
23.26
27.10
29.57
31.15
32.06
32.26
31.51
29.70
26.95
23.65
20.31
17.33
14.95
13.13
11.64
10.17
8.46
6.42
4.17
2.01
0.16
-1.28
-2.48
-3.78
-5.56
-8.17
-11.73
-16.07
-20.70
-24.88
-27.66
-28.15
-25.70
-20.19
-12.17
-2.78
6.59
14.71
20.80
24.71
26.70
27.27
26.87
25.79
24.16
21.99
19.39
16.54
13.69
11.17
9.21
7.83
6.92
6.18
5.35
4.27
2.98
1.69
0.62
-0.10
-0.62
-1.24
-2.39
-4.43
-7.56
-11.83
-17.04
-22.82
-28.51
-33.21
-35.88
-35.56
-31.73
-24.54
-14.95
-4.40
5.57
13.81
19.80
23.63
25.72
26.51
26.32
25.25
23.41
21.02
18.43
16.08
14.25
13.05
12.30
11.69
10.93
9.90
8.59
7.06
5.36
3.50
1.47
-0.68
-2.86
-5.03
-7.11
-9.22
-11.58
-14.52
-18.31
-22.97
-28.06
-32.73
-35.88
-36.41
-33.60
-27.46
-18.68
-8.48
1.68
10.62
17.57
22.34
25.12
26.32
26.43
25.82
24.77
23.42
21.95
20.48
19.12
17.95
16.91
15.97
15.08
14.26
13.51
12.85
12.22
11.46
10.35
8.68
6.38
3.52
0.27
-3.10
-6.35
-9.35
-12.10
-14.76
-17.63
-20.90
-24.50
-27.85
-30.00
-29.93
-26.88
-20.78
-12.32
-2.77
6.47
14.26
20.03
23.72
25.65
26.28
26.11
25.49
24.68
23.78
22.81
21.73
20.50
19.09
17.56
16.02
14.59
13.32
12.22
11.29
10.43
9.54
8.45
6.99
4.99
2.42
-0.58
-3.75
-6.79
-9.54
-11.95
-14.17
-16.47
-19.17
-22.49
-26.38
-30.38
-33.53
-34.74
-33.00
-27.94
-20.05
-10.63
-1.25
6.74
12.66
16.53
18.77
19.87
20.18
19.83
18.94
17.73
16.53
15.65
15.22
15.14
15.07
14.69
13.77
12.38
10.82
9.40
8.36
7.61
6.84
5.60
3.55
0.62
-2.91
-6.50
-9.65
-12.06
-13.76
-15.12
-16.69
-18.94
-22.02
-25.65
-28.97
-30.94
-30.48
-27.00
-20.60
-12.06
-2.62
6.42
14.06
19.83
23.69
25.91
26.86
26.83
26.03
24.67
22.92
21.02
19.15
17.41
15.78
14.22
12.65
11.12
9.75
8.70
8.07
7.78
7.60
7.16
6.14
4.34
1.76
-1.36
-4.68
-7.85
-10.67
-13.17
-15.63
-18.40
-21.76
-25.62
-29.41
-32.19
-32.91
-30.83
-25.76
-18.24
-9.32
-0.24
7.82
14.12
18.32
20.54
21.15
20.71
19.78
18.78
17.96
17.32
16.71
15.93
14.92
13.78
12.71
11.94
11.54
11.48
11.52
11.39
10.78
9.52
7.54
4.89
1.79
-1.53
-4.77
-7.80
-10.57
-13.18
-15.85
-18.80
-22.13
-25.69
-29.05
-31.45
-32.10
-30.33
-25.88
-19.11
-10.88
-2.33
5.42
11.53
15.62
17.80
18.44
18.13
17.29
16.21
14.98
13.57
11.96
10.27
8.82
7.88
7.61
7.91
8.47
8.89
8.91
8.47
7.63
6.48
5.02
3.14
0.80
-1.92
-4.78
-7.54
-9.97
-12.13
-14.28
-16.77
-19.82
-23.36
-26.84
-29.33
-29.85
-27.61
-22.50
-15.15
-6.72
1.41
8.14
12.95
15.92
17.43
17.97
17.81
17.04
15.74
14.00
12.13
10.45
9.21
8.45
8.05
7.74
7.35
6.84
6.22
5.53
4.74
3.67
2.16
0.19
-2.13
-4.50
-6.60
-8.27
-9.59
-10.86
-12.51
-14.84
-17.87
-21.24
-24.17
-25.71
-25.03
-21.68
-15.79
-8.06
0.37
8.33
14.81
19.28
21.73
22.48
22.09
21.00
19.52
17.74
15.65
13.22
10.61
8.07
5.93
4.48
3.77
3.58
3.53
3.25
2.52
1.33
-0.20
-1.97
-3.89
-5.97
-8.22
-10.61
-13.08
-15.59
-18.21
-21.10
-24.35
-27.69
-30.51
-31.89
-30.93
-27.15
-20.71
-12.44
-3.56
4.68
11.41
16.21
19.13
20.43
20.49
19.66
18.21
16.35
14.32
12.30
10.49
8.94
7.68
6.66
5.77
4.93
4.08
3.22
2.35
1.50
0.67
-0.18
-1.08
-2.06
-3.17
-4.55
-6.34
-8.75
-11.89
-15.60
-19.36
-22.37
-23.76
-22.90
-19.69
-14.57
-8.34
-1.91
4.04
9.17
13.39
16.76
19.29
20.92
21.54
21.10
19.69
17.54
14.97
12.33
9.90
7.90
6.39
5.28
4.42
3.65
2.92
2.23
1.59
0.98
0.29
-0.70
-2.22
-4.47
-7.52
-11.30
-15.55
-19.85
-23.54
-25.90
-26.25
-24.19
-19.72
-13.38
-6.04
1.26
7.67
12.72
16.28
18.50
19.60
19.74
18.97
17.32
14.93
12.09
9.23
6.73
4.90
3.89
3.60
3.84
4.39
5.00
5.48
5.69
5.51
4.92
4.04
3.14
2.58
2.77
3.96
6.16
9.07
12.07
14.46
15.63
15.25
13.43
10.63
7.47
4.51
2.09
0.25
-1.05
-1.94
-2.48
-2.70
-2.64
-2.35
-1.98
-1.70
-1.72
-2.21
-3.37
-5.34
-8.03
-11.21
-14.48
-17.46
-19.93
-21.98
-23.93
-26.19
-29.04
-32.44
-35.99
-38.89
-40.20
-39.01
-34.87
-27.89
-18.85
-8.93
0.54
8.51
14.40
18.16
20.10
20.63
20.07
18.64
16.50
13.85
11.00
8.31
6.16
4.76
4.14
4.10
4.35
4.52
4.41
3.93
3.11
2.08
0.94
-0.26
-1.60
-3.17
-5.11
-7.42
-10.03
-12.86
-15.80
-18.81
-21.75
-24.32
-25.95
-25.95
-23.70
-19.02
-12.30
-4.45
3.35
10.07
15.15
18.54
20.51
21.41
21.48
20.76
19.30
17.17
14.59
11.90
9.43
7.41
5.91
4.93
4.32
3.97
3.69
3.32
2.69
1.67
0.29
-1.34
-3.01
-4.56
-5.92
-7.20
-8.57
-10.21
-12.27
-14.74
-17.44
-20.06
-22.04
-22.71
-21.54
-18.26
-13.09
-6.76
-0.21
5.66
10.21
13.27
15.02
15.83
16.09
16.10
15.97
15.71
15.28
14.60
13.65
12.43
11.10
9.82
8.77
8.00
7.45
6.97
6.33
5.34
3.88
1.96
-0.28
-2.65
-4.99
-7.19
-9.24
-11.22
-13.22
-15.39
-17.84
-20.49
-23.13
-25.23
-26.16
-25.23
-22.07
-16.74
-9.86
-2.49
4.30
9.70
13.37
15.44
16.30
16.40
16.03
15.29
14.20
12.81
11.26
9.75
8.47
7.52
6.90
6.56
6.42
6.41
6.44
6.38
6.11
5.52
4.55
3.22
1.60
-0.25
-2.26
-4.48
-6.94
-9.63
-12.55
-15.66
-18.95
-22.28
-25.35
-27.56
-28.19
-26.58
-22.48
-16.24
-8.77
-1.27
5.19
10.03
13.24
15.18
16.36
17.06
17.27
16.86
15.69
13.86
11.73
9.76
8.35
7.69
7.68
7.96
8.20
8.05
7.34
6.04
4.27
2.20
0.02
-2.14
-4.21
-6.16
-7.99
-9.67
-11.24
-12.80
-14.48
-16.38
-18.43
-20.31
-21.40
-21.02
-18.66
-14.22
-8.21
-1.48
4.94
10.23
13.97
16.19
17.19
17.31
16.80
15.74
14.16
12.13
9.88
7.70
5.90
4.64
3.95
3.69
3.65
3.68
3.72
3.72
3.62
3.26
2.42
0.99
-1.02
-3.41
-5.84
-8.01
-9.75
-11.14
-12.47
-14.13
-16.35
-19.12
-22.03
-24.38
-25.28
-24.07
-20.46
-14.78
-7.84
-0.71
5.62
10.57
13.97
15.97
16.85
16.90
16.26
15.09
13.60
12.04
10.71
9.76
9.25
9.08
9.11
9.22
9.34
9.38
9.30
8.97
8.29
7.10
5.38
3.19
0.69
-1.88
-4.31
-6.44
-8.30
-10.08
-12.05
-14.47
-17.41
-20.64
-23.54
-25.26
-25.01
-22.34
-17.37
-10.74
-3.50
3.26
8.77
12.69
15.13
16.50
17.18
17.46
17.43
17.04
16.25
15.10
13.74
12.31
10.96
9.71
8.50
7.23
5.82
4.29
2.68
1.09
-0.47
-2.02
-3.58
-5.14
-6.76
-8.50
-10.47
-12.82
-15.67
-18.92
-22.23
-24.96
-26.37
-25.80
-22.95
-17.98
-11.48
-4.33
2.54
8.42
12.91
15.92
17.62
18.30
18.18
17.41
16.12
14.44
12.52
10.63
9.02
7.80
6.97
6.32
5.57
4.49
3.03
1.33
-0.35
-1.81
-3.03
-4.14
-5.38
-6.97
-9.00
-11.46
-14.29
-17.39
-20.56
-23.46
-25.52
-26.12
-24.66
-20.95
-15.38
-8.77
-2.18
3.51
7.79
10.69
12.48
13.52
14.04
14.01
13.34
12.02
10.26
8.45
6.95
6.02
5.58
5.36
4.95
4.12
2.82
1.25
-0.31
-1.70
-2.93
-4.23
-5.89
-8.18
-11.18
-14.76
-18.66
-22.48
-25.74
-27.92
-28.50
-27.02
-23.32
-17.68
-10.73
-3.45
3.27
8.80
12.95
15.86
17.84
19.12
19.73
19.57
18.57
16.85
14.74
12.68
11.02
9.92
9.28
8.79
8.19
7.33
6.21
4.95
3.69
2.51
1.33
0.08
-1.36
-3.15
-5.43
-8.33
-11.82
-15.70
-19.48
-22.46
-23.93
-23.34
-20.56
-15.92
-10.12
-3.99
1.72
6.61
10.53
13.55
15.78
17.28
18.07
18.19
17.75
16.91
15.84
14.67
13.43
12.14
10.79
9.48
8.23
7.06
5.93
4.72
3.33
1.73
-0.00
-1.75
-3.38
-4.82
-6.15
-7.55
-9.29
-11.62
-14.62
-18.17
-21.85
-24.98
-26.77
-26.53
-23.90
-19.02
-12.50
-5.31
1.51
7.14
11.25
13.92
15.56
16.63
17.46
18.14
18.59
18.72
18.49
17.96
17.21
16.27
15.14
13.84
12.43
11.07
10.00
9.37
9.10
8.87
8.21
6.74
4.38
1.38
-1.80
-4.70
-7.08
-8.96
-10.63
-12.49
-14.87
-17.91
-21.46
-25.11
-28.16
-29.85
-29.46
-26.64
-21.54
-14.77
-7.32
-0.14
6.01
10.83
14.29
16.65
18.22
19.19
19.71
19.79
19.50
18.93
18.18
17.33
16.38
15.31
14.06
12.66
11.20
9.85
8.78
7.99
7.37
6.67
5.63
4.09
2.07
-0.27
-2.64
-4.83
-6.73
-8.38
-9.97
-11.77
-14.07
-17.02
-20.56
-24.25
-27.38
-29.08
-28.60
-25.62
-20.43
-13.78
-6.67
-0.07
5.42
9.63
12.72
14.98
16.66
17.81
18.36
18.22
17.41
16.15
14.83
13.85
13.46
13.62
14.06
14.41
14.39
13.97
13.31
12.67
12.17
11.76
11.16
10.08
8.31
5.86
2.96
-0.05
-2.82
-5.19
-7.09
-8.69
-10.27
-12.15
-14.61
-17.75
-21.39
-25.03
-27.88
-29.12
-28.13
-24.74
-19.30
-12.56
-5.47
1.16
6.85
11.44
15.04
17.80
19.80
21.04
21.53
21.35
20.66
19.71
18.69
17.72
16.82
15.99
15.19
14.43
13.74
13.10
12.51
11.94
11.33
10.61
9.71
8.49
6.87
4.80
2.36
-0.28
-2.87
-5.19
-7.15
-8.82
-10.41
-12.21
-14.43
-17.14
-20.22
-23.41
-26.27
-28.23
-28.76
-27.39
-23.99
-18.79
-12.41
-5.68
0.59
5.77
9.64
12.24
13.80
14.55
14.70
14.42
13.85
13.17
12.52
12.01
11.67
11.40
11.06
10.56
9.89
9.16
8.59
8.36
8.54
9.05
9.65
9.97
9.68
8.57
6.60
3.96
0.98
-2.00
-4.71
-7.02
-9.00
-10.91
-13.05
-15.69
-18.92
-22.57
-26.20
-29.11
-30.61
-30.08
-27.30
-22.46
-16.20
-9.39
-2.88
2.69
7.09
10.41
12.93
14.90
16.38
17.28
17.51
17.09
16.23
15.29
14.60
14.30
14.26
14.16
13.65
12.60
11.12
9.46
7.86
6.51
5.36
4.26
2.99
1.44
-0.40
-2.40
-4.37
-6.17
-7.73
-9.10
-10.44
-11.98
-13.92
-16.39
-19.35
-22.60
-25.69
-28.04
-28.95
-27.88
-24.51
-19.04
-12.09
-4.58
2.47
8.32
12.58
15.36
16.99
17.88
18.30
18.33
18.01
17.40
16.61
15.77
14.94
14.08
13.13
12.04
10.89
9.86
9.09
8.60
8.22
7.69
6.80
5.42
3.61
1.55
-0.56
-2.57
-4.43
-6.06
-7.48
-8.69
-9.82
-11.08
-12.81
-15.17
-18.07
-21.01
-23.12
-23.57
-21.79
-17.84
-12.33
-6.23
-0.47
4.30
7.90
10.49
12.29
13.49
14.11
14.13
13.53
12.44
11.08
9.69
8.43
7.34
6.34
5.38
4.41
3.49
2.63
1.85
1.04
0.07
-1.14
-2.61
-4.21
-5.79
-7.20
-8.40
-9.46
-10.56
-11.89
-13.63
-15.90
-18.67
-21.67
-24.31
-25.83
-25.48
-22.84
-18.04
-11.76
-5.03
1.18
6.20
9.80
12.09
13.38
13.94
14.00
13.71
13.21
12.63
12.00
11.30
10.45
9.38
8.12
6.76
5.44
4.33
3.45
2.73
2.05
1.30
0.42
-0.60
-1.72
-2.94
-4.26
-5.76
-7.49
-9.50
-11.86
-14.61
-17.79
-21.27
-24.69
-27.38
-28.60
-27.73
-24.48
-19.15
-12.43
-5.27
1.44
7.06
11.31
14.17
15.85
16.56
16.55
16.11
15.45
14.82
14.34
14.04
13.76
13.32
12.54
11.38
9.99
8.61
7.52
6.81
6.34
5.77
4.73
2.93
0.35
-2.80
-6.10
-9.14
-11.58
-13.41
-14.78
-16.06
-17.64
-19.81
-22.61
-25.76
-28.63
-30.39
-30.25
-27.62
-22.46
-15.33
-7.29
0.47
7.00
11.91
15.35
17.73
19.45
20.66
21.25
21.02
19.98
18.33
16.48
14.87
13.72
13.05
12.69
12.38
11.91
11.20
10.27
9.24
8.27
7.36
6.42
5.20
3.46
1.08
-1.78
-4.79
-7.53
-9.70
-11.27
-12.45
-13.61
-15.11
-17.20
-19.91
-23.02
-26.08
-28.40
-29.25
-28.02
-24.52
-19.04
-12.33
-5.36
0.96
6.07
9.85
12.43
14.16
15.28
15.99
16.38
16.51
16.44
16.23
15.98
15.76
15.65
15.62
15.58
15.34
14.75
13.72
12.32
10.75
9.24
7.91
6.66
5.24
3.39
1.03
-1.69
-4.40
-6.75
-8.56
-9.90
-11.02
-12.29
-13.94
-16.08
-18.71
-21.69
-24.83
-27.82
-30.11
-31.04
-29.93
-26.42
-20.67
-13.36
-5.60
1.55
7.34
11.56
14.47
16.50
17.95
18.92
19.36
19.22
18.58
17.71
16.90
16.30
15.92
15.56
15.02
14.19
13.11
11.96
10.93
10.13
9.51
8.92
8.09
6.79
4.84
2.21
-0.97
-4.43
-7.86
-10.99
-13.70
-16.01
-18.13
-20.32
-22.88
-26.01
-29.80
-34.12
-38.55
-42.42
-44.89
-45.28
-43.31
-39.28
-34.03
-28.65
-24.10
-20.95
-19.41
-19.28
-20.40
-22.68
-26.13
-30.81
-36.63
-43.31
-50.43
-57.56
-64.35
-70.66
-76.52
-82.10
-87.57
-92.95
-98.20
-103.08
-107.39
-110.91
-113.46
-114.91
-115.14
-114.12
-112.12
-109.89
-108.66
-109.91
-114.96
-124.45
-138.13
-154.96
-173.46
-192.10
-209.54
-224.58
-235.97
-242.46
-242.86
-236.59
-223.78
-205.26
-182.04
-154.82
-123.68
-88.35
-48.82
-5.86
38.83
83.04
124.78
162.96
197.73
230.11
261.27
291.82
321.43
348.85
372.31
390.00
400.47
402.79
396.66
382.38
360.84
333.59
302.68
270.28
238.47
208.71
181.68
157.38
135.27
114.64
94.83
75.38
56.17
37.65
20.64
6.25
-4.52
-11.15
-13.97
-13.93
-12.40
-10.61
-9.29
-8.72
-8.91
-9.69
-10.93
-12.43
-13.73
-14.22
-13.20
-10.25
-5.46
0.58
7.00
12.91
17.72
21.19
23.28
24.04
23.51
21.58
18.18
13.25
6.74
-1.29
-10.76
-21.56
-33.46
-45.99
-58.45
-69.68
-78.33
-83.05
-82.82
-77.31
-67.01
-53.16
-37.34
-21.26
-6.21
6.87
17.45
25.18
29.85
31.33
29.81
25.81
20.25
14.33
9.23
5.76
4.18
4.10
4.73
5.12
4.60
2.85
-0.03
-3.75
-7.97
-12.46
-17.07
-21.72
-26.33
-30.78
-34.98
-38.89
-42.48
-45.73
-48.58
-50.81
-52.07
-51.86
-49.69
-45.27
-38.63
-30.21
-20.70
-10.94
-1.64
6.60
13.34
18.30
21.35
22.71
22.92
22.82
23.21
24.57
26.87
29.63
32.21
34.03
34.83
34.62
33.63
32.13
30.42
28.71
27.20
26.05
25.35
25.01
24.81
24.38
23.33
21.29
18.10
13.77
8.58
2.86
-2.97
-8.52
-13.40
-17.14
-19.31
-19.50
-17.56
-13.69
-8.46
-2.62
3.07
8.08
12.25
15.62
18.36
20.42
21.63
21.73
20.60
18.35
15.30
11.96
8.74
5.93
3.60
1.72
0.19
-1.13
-2.39
-3.74
-5.24
-6.83
-8.32
-9.51
-10.28
-10.75
-11.31
-12.42
-14.51
-17.72
-21.82
-26.14
-29.76
-31.76
-31.45
-28.65
-23.68
-17.29
-10.39
-3.78
1.98
6.63
10.11
12.52
13.95
14.58
14.61
14.28
13.84
13.41
13.08
12.84
12.71
12.68
12.76
12.89
12.85
12.44
11.41
9.67
7.25
4.38
1.30
-1.79
-4.76
-7.67
-10.58
-13.62
-16.88
-20.40
-24.04
-27.46
-30.09
-31.25
-30.35
-27.13
-21.77
-14.92
-7.47
-0.31
5.95
11.03
14.95
17.85
19.81
20.89
21.13
20.65
19.68
18.53
17.47
16.65
16.05
15.51
14.87
14.06
13.17
12.35
11.77
11.46
11.28
10.96
10.18
8.66
6.31
3.22
-0.35
-4.00
-7.32
-10.06
-12.16
-13.82
-15.40
-17.34
-19.97
-23.36
-27.22
-30.92
-33.59
-34.38
-32.75
-28.64
-22.54
-15.31
-7.95
-1.25
4.35
8.78
12.26
14.98
17.09
18.58
19.41
19.52
18.96
17.94
16.77
15.82
15.36
15.53
16.22
17.21
18.24
19.07
19.54
19.52
18.99
17.91
16.35
14.41
12.24
9.96
7.66
5.35
2.97
0.49
-2.12
-4.82
-7.57
-10.34
-13.15
-16.04
-19.05
-22.20
-25.45
-28.63
-31.46
-33.49
-34.23
-33.22
-30.25
-25.39
-19.10
-12.07
-5.03
1.35
6.66
10.67
13.33
14.67
14.83
14.00
12.47
10.65
8.97
7.81
7.40
7.75
8.63
9.68
10.57
11.04
11.04
10.64
9.98
9.17
8.23
7.13
5.80
4.20
2.35
0.32
-1.83
-4.11
-6.55
-9.19
-11.92
-14.48
-16.49
-17.54
-17.41
-16.15
-14.14
-11.98
-10.31
-9.60
-9.97
-11.20
-12.70
-13.74
-13.66
-12.06
-8.90
-4.54
0.37
5.13
9.14
12.03
13.65
14.14
13.77
12.94
12.00
11.21
10.77
10.71
10.99
11.50
12.17
12.94
13.76
14.58
15.33
15.93
16.26
16.17
15.56
14.37
12.59
10.28
7.59
4.69
1.76
-1.05
-3.69
-6.12
-8.35
-10.44
-12.38
-14.20
-15.97
-17.72
-19.50
-21.26
-22.84
-23.98
-24.42
-23.93
-22.42
-19.99
-16.85
-13.27
-9.47
-5.58
-1.68
2.14
5.78
8.99
11.53
13.19
13.89
13.75
13.01
11.98
10.92
10.05
9.42
9.04
8.86
8.81
8.81
8.75
8.52
8.03
7.21
6.02
4.48
2.65
0.63
-1.48
-3.55
-5.45
-7.09
-8.39
-9.39
-10.25
-11.20
-12.61
-14.70
-17.53
-20.89
-24.30
-27.11
-28.71
-28.67
-26.86
-23.47
-18.91
-13.66
-8.18
-2.88
1.90
5.88
8.89
10.83
11.75
11.78
11.20
10.26
9.25
8.37
7.74
7.44
7.41
7.51
7.57
7.46
7.14
6.69
6.22
5.74
5.15
4.26
2.94
1.19
-0.83
-2.95
-5.02
-6.96
-8.88
-10.83
-12.91
-15.12
-17.48
-20.04
-22.77
-25.49
-27.83
-29.24
-29.17
-27.31
-23.69
-18.68
-12.92
-7.09
-1.78
2.63
5.99
8.29
9.66
10.25
10.23
9.75
8.94
7.91
6.76
5.55
4.36
3.19
2.09
1.09
0.24
-0.42
-0.90
-1.28
-1.77
-2.61
-4.00
-6.01
-8.52
-11.25
-13.84
-16.04
-17.81
-19.31
-20.84
-22.70
-25.07
-27.97
-31.24
-34.58
-37.51
-39.39
-39.51
-37.29
-32.47
-25.29
-16.42
-6.72
3.04
12.34
20.94
28.65
35.23
40.35
43.85
45.84
46.83
47.39
47.86
48.11
47.52
45.37
41.34
35.81
29.75
24.33
20.31
17.73
15.86
13.67
10.35
5.71
0.29
-5.06
-9.50
-12.67
-14.73
-16.16
-17.53
-19.18
-21.15
-23.32
-25.51
-27.58
-29.39
-30.77
-31.39
-30.86
-28.78
-25.06
-19.93
-14.03
-8.09
-2.77
1.54
4.75
7.00
8.43
9.17
9.25
8.74
7.84
6.76
5.73
4.92
4.35
3.97
3.68
3.39
3.14
2.99
2.97
3.04
3.07
2.85
2.23
1.15
-0.36
-2.12
-3.91
-5.57
-7.10
-8.57
-10.22
-12.18
-14.54
-17.28
-20.29
-23.33
-26.01
-27.91
-28.54
-27.59
-24.93
-20.72
-15.32
-9.27
-3.14
2.58
7.46
11.26
13.84
15.27
15.74
15.53
14.88
13.93
12.84
11.68
10.58
9.59
8.73
7.98
7.26
6.53
5.82
5.23
4.83
4.63
4.48
4.17
3.50
2.34
0.75
-1.03
-2.66
-3.86
-4.51
-4.76
-4.96
-5.53
-6.84
-9.06
-12.11
-15.65
-19.25
-22.29
-24.22
-24.58
-23.12
-19.93
-15.47
-10.33
-5.19
-0.53
3.46
6.77
9.44
11.48
12.80
13.33
13.12
12.41
11.51
10.76
10.32
10.09
9.85
9.37
8.62
7.77
7.15
6.97
7.24
7.67
7.81
7.26
5.83
3.64
1.05
-1.57
-3.95
-6.01
-7.81
-9.44
-10.98
-12.48
-14.02
-15.75
-17.74
-19.96
-22.11
-23.66
-23.97
-22.59
-19.48
-15.06
-10.01
-5.04
-0.64
3.01
5.99
8.42
10.41
11.93
12.96
13.53
13.74
13.77
13.75
13.72
13.63
13.41
13.03
12.50
11.92
11.32
10.72
10.02
9.05
7.63
5.70
3.33
0.71
-1.91
-4.32
-6.41
-8.07
-9.36
-10.34
-11.14
-11.96
-13.06
-14.63
-16.66
-18.89
-20.78
-21.75
-21.40
-19.58
-16.52
-12.69
-8.59
-4.66
-1.17
1.77
4.07
5.71
6.67
6.99
6.76
6.15
5.36
4.57
3.91
3.45
3.22
3.33
3.86
4.90
6.40
8.16
9.82
11.04
11.53
11.23
10.20
8.63
6.73
4.69
2.61
0.48
-1.69
-3.97
-6.42
-9.13
-12.16
-15.44
-18.77
-21.81
-24.07
-25.08
-24.43
-21.98
-17.89
-12.60
-6.73
-0.94
4.22
8.34
11.26
12.96
13.60
13.47
12.89
12.12
11.37
10.71
10.19
9.85
9.69
9.68
9.71
9.60
9.15
8.27
6.97
5.38
3.63
1.85
0.03
-1.82
-3.77
-5.84
-8.02
-10.34
-12.85
-15.56
-18.39
-21.09
-23.22
-24.26
-23.73
-21.45
-17.56
-12.55
-7.09
-1.88
2.55
5.87
7.92
8.67
8.15
6.54
4.21
1.66
-0.56
-2.17
-3.22
-4.14
-5.48
-7.65
-10.60
-13.77
-16.42
-17.98
-18.45
-18.50
-19.28
-21.91
-26.96
-34.06
-41.92
-48.83
-53.34
-54.95
-54.37
-53.29
-53.51
-56.09
-60.89
-66.63
-71.44
-73.73
-72.85
-69.24
-64.44
-60.81
-61.30
-68.85
-85.16
-109.20
-136.22
-158.20
-166.01
-152.73
-116.72
-62.69
-0.18
59.73
108.14
140.51
156.80
160.05
154.31
143.44
130.48
117.92
107.72
101.14
98.32
98.35
99.42
99.37
96.60
90.49
81.63
71.59
62.35
55.63
52.31
52.11
53.65
55.02
54.46
51.06
45.11
37.85
30.94
25.75
22.81
21.78
21.72
21.53
20.38
17.95
14.40
10.29
6.30
2.95
0.47
-1.20
-2.33
-3.18
-3.93
-4.64
-5.27
-5.84
-6.42
-7.20
-8.33
-9.83
-11.56
-13.34
-15.03
-16.71
-18.62
-20.95
-23.68
-26.39
-28.28
-28.51
-26.51
-22.31
-16.61
-10.58
-5.39
-1.88
-0.31
-0.21
-0.57
-0.10
2.32
7.27
14.40
22.50
29.71
34.07
34.19
29.72
21.41
10.88
0.00
-9.78
-18.00
-25.33
-33.21
-43.17
-55.91
-70.87
-86.25
-99.61
-108.89
-113.27
-113.54
-111.78
-110.42
-110.99
-113.43
-115.85
-115.22
-108.48
-93.62
-70.35
-40.13
-5.68
29.70
62.82
91.05
112.65
126.86
133.95
135.12
132.16
127.04
121.45
116.55
112.80
110.20
108.28
106.38
103.95
100.54
96.11
90.87
85.35
80.13
75.72
72.33
69.82
67.74
65.45
62.35
58.09
52.64
46.27
39.38
32.25
25.00
17.61
10.01
2.23
-5.52
-12.97
-19.81
-25.88
-31.23
-36.04
-40.52
-44.72
-48.51
-51.53
-53.42
-53.94
-53.13
-51.21
-48.53
-45.38
-41.91
-38.17
-34.20
-30.06
-25.90
-21.96
-18.43
-15.51
-13.26
-11.60
-10.32
-9.12
-7.77
-6.24
-4.68
-3.37
-2.50
-2.08
-1.85
-1.51
-0.83
0.13
1.05
1.58
1.47
0.72
-0.41
-1.60
-2.66
-3.63
-4.74
-6.26
-8.26
-10.56
-12.78
-14.56
-15.76
-16.59
-17.46
-18.74
-20.56
-22.67
-24.63
-26.02
-26.55
-26.17
-24.91
-22.79
-19.71
-15.61
-10.51
-4.73
1.22
6.76
11.34
14.66
16.58
17.23
16.84
15.69
14.07
12.19
10.24
8.26
6.37
4.68
3.40
2.73
2.76
3.43
4.55
5.87
7.11
8.05
8.50
8.31
7.42
5.87
3.91
1.87
0.02
-1.53
-2.93
-4.39
-6.13
-8.16
-10.26
-12.13
-13.57
-14.56
-15.27
-15.96
-16.90
-18.23
-19.93
-21.77
-23.36
-24.26
-24.07
-22.48
-19.49
-15.29
-10.26
-4.79
0.75
6.07
10.91
14.92
17.79
19.30
19.48
18.65
17.36
16.15
15.45
15.44
16.07
17.09
18.18
19.04
19.42
19.18
18.25
16.67
14.61
12.34
10.12
8.19
6.76
5.84
5.33
4.98
4.49
3.57
2.10
0.12
-2.16
-4.45
-6.45
-7.99
-9.09
-9.90
-10.65
-11.54
-12.71
-14.19
-15.86
-17.52
-18.76
-19.16
-18.34
-16.05
-12.45
-7.95
-3.22
1.11
4.51
6.85
8.30
9.08
9.50
9.67
9.62
9.28
8.65
7.74
6.74
5.87
5.25
5.02
5.13
5.48
5.94
6.42
6.83
7.15
7.38
7.50
7.46
7.15
6.55
5.63
4.42
3.00
1.49
-0.02
-1.41
-2.64
-3.75
-4.87
-6.14
-7.72
-9.64
-11.86
-14.22
-16.53
-18.60
-20.13
-20.79
-20.24
-18.27
-14.92
-10.56
-5.79
-1.25
2.55
5.39
7.32
8.50
9.16
9.44
9.36
8.91
8.10
7.01
5.86
4.93
4.45
4.49
4.90
5.35
5.47
5.11
4.34
3.38
2.49
1.77
1.16
0.45
-0.48
-1.66
-2.92
-4.11
-5.10
-5.97
-6.85
-7.86
-9.05
-10.34
-11.54
-12.58
-13.48
-14.39
-15.46
-16.67
-17.77
-18.29
-17.76
-15.88
-12.76
-8.84
-4.73
-0.98
2.09
4.39
5.98
6.96
7.37
7.23
6.66
5.81
4.95
4.31
4.03
4.09
4.40
4.78
5.04
5.06
4.81
4.37
3.91
3.64
3.65
3.90
4.23
4.36
4.05
3.21
1.88
0.20
-1.62
-3.42
-5.10
-6.70
-8.28
-9.92
-11.65
-13.37
-14.96
-16.23
-17.02
-17.14
-16.42
-14.67
-11.81
-7.96
-3.49
0.98
4.81
7.52
8.94
9.24
8.76
7.80
6.51
4.88
2.93
0.79
-1.25
-2.84
-3.72
-3.83
-3.38
-2.71
-2.13
-1.84
-1.86
-2.21
-2.86
-3.90
-5.29
-6.81
-8.08
-8.66
-8.32
-7.27
-6.19
-5.93
-7.11
-9.64
-12.73
-15.00
-15.05
-11.87
-5.14
4.81
17.11
30.53
43.62
54.74
62.36
65.36
63.37
56.99
47.69
37.30
27.51
19.38
13.17
8.55
4.95
1.81
-1.21
-4.22
-7.28
-10.39
-13.51
-16.56
-19.29
-21.37
-22.54
-22.67
-21.86
-20.50
-19.10
-18.15
-17.96
-18.59
-19.83
-21.42
-23.06
-24.62
-26.08
-27.39
-28.47
-29.16
-29.33
-29.04
-28.60
-28.46
-29.04
-30.38
-31.98
-32.93
-32.28
-29.45
-24.58
-18.53
-12.55
-7.86
-5.22
-4.73
-5.88
-7.79
-9.55
-10.55
-10.52
-9.61
-8.24
-6.93
-6.11
-6.03
-6.71
-8.04
-9.85
-11.93
-14.06
-15.93
-17.28
-17.86
-17.67
-16.93
-15.99
-15.21
-14.74
-14.42
-13.93
-12.96
-11.42
-9.58
-7.86
-6.58
-5.69
-4.75
-3.11
-0.30
3.61
8.02
11.97
14.74
16.13
16.62
17.08
18.21
20.20
22.62
24.79
26.16
26.71
27.01
27.82
29.77
32.88
36.60
40.04
42.45
43.57
43.79
43.94
44.83
46.89
49.89
53.03
55.31
55.99
54.79
52.05
48.34
44.25
40.10
35.82
31.17
25.89
19.98
13.63
7.23
1.12
-4.51
-9.53
-13.93
-17.54
-20.11
-21.26
-20.76
-18.57
-14.98
-10.64
-6.25
-2.52
0.04
1.21
0.98
-0.57
-3.24
-6.71
-10.60
-14.32
-17.33
-19.16
-19.75
-19.33
-18.37
-17.35
-16.49
-15.78
-15.10
-14.38
-13.73
-13.42
-13.66
-14.42
-15.41
-16.12
-16.12
-15.25
-13.69
-11.94
-10.56
-10.05
-10.65
-12.29
-14.61
-17.02
-18.84
-19.49
-18.60
-16.07
-12.09
-7.09
-1.57
3.95
9.05
13.37
16.74
19.04
20.29
20.59
20.04
18.71
16.59
13.64
9.81
5.22
0.20
-4.65
-8.55
-10.67
-10.40
-7.56
-2.51
3.82
10.10
14.99
17.43
16.99
13.97
9.23
3.92
-0.83
-4.15
-5.75
-6.02
-6.24
-8.44
-14.82
-26.88
-44.33
-64.68
-83.65
-96.54
-99.82
-92.54
-76.39
-54.99
-32.45
-12.01
4.49
16.48
24.18
27.97
28.37
25.99
21.81
17.05
13.00
10.57
9.91
10.51
11.41
11.64
10.74
8.90
6.81
5.27
4.76
5.25
6.30
7.26
7.58
7.04
5.74
3.92
1.84
-0.28
-2.29
-4.05
-5.55
-6.83
-8.06
-9.46
-11.23
-13.42
-15.88
-18.23
-19.93
-20.45
-19.41
-16.72
-12.64
-7.72
-2.69
1.77
5.19
7.38
8.49
8.87
8.86
8.68
8.41
7.97
7.28
6.34
5.30
4.45
4.21
4.98
7.06
10.50
15.05
20.11
24.90
28.60
30.65
30.85
29.40
26.72
23.26
19.39
15.34
11.29
7.43
3.98
1.06
-1.35
-3.41
-5.43
-7.67
-10.17
-12.67
-14.70
-15.73
-15.36
-13.51
-10.40
-6.52
-2.43
1.45
4.95
8.11
11.04
13.73
15.93
17.29
17.51
16.62
15.05
13.53
12.75
13.05
14.36
16.25
18.15
19.69
20.64
20.93
20.54
19.60
18.53
18.08
19.06
21.84
26.01
30.21
32.59
31.62
26.76
18.63
8.66
-1.70
-11.53
-20.63
-29.20
-37.42
-45.04
-51.39
-55.77
-57.78
-57.49
-55.37
-51.97
-47.77
-43.03
-37.85
-32.26
-26.30
-20.01
-13.60
-7.31
-1.47
3.54
7.44
10.21
12.06
13.42
14.77
16.43
18.51
20.99
23.73
26.62
29.50
32.11
34.08
35.08
34.93
33.64
31.47
28.63
25.25
21.37
16.98
12.12
6.95
1.64
-3.79
-9.51
-15.79
-22.69
-29.86
-36.35
-40.95
-42.54
-40.65
-35.65
-28.67
-21.12
-14.29
-8.92
-5.22
-3.00
-1.92
-1.73
-2.30
-3.47
-5.03
-6.70
-8.05
-8.82
-8.81
-7.97
-6.45
-4.43
-2.12
0.27
2.53
4.46
5.86
6.52
6.36
5.35
3.65
1.51
-0.71
-2.75
-4.36
-5.55
-6.50
-7.47
-8.73
-10.43
-12.59
-15.04
-17.41
-19.19
-19.84
-18.92
-16.23
-11.96
-6.61
-0.91
4.43
8.90
12.28
14.62
16.07
16.90
17.31
17.46
17.51
17.52
17.51
17.40
17.06
16.36
15.30
13.89
12.30
10.69
9.22
7.96
6.88
5.84
4.68
3.30
1.75
0.17
-1.22
-2.30
-3.14
-3.99
-5.14
-6.83
-9.10
-11.80
-14.64
-17.26
-19.30
-20.39
-20.23
-18.57
-15.40
-10.97
-5.80
-0.55
4.10
7.68
10.01
11.19
11.46
11.16
10.55
9.78
8.91
8.01
7.14
6.43
5.93
5.70
5.68
5.80
5.95
6.07
6.10
5.96
5.58
4.83
3.66
2.06
0.09
-2.11
-4.46
-6.88
-9.36
-11.92
-14.56
-17.25
-19.93
-22.48
-24.67
-26.17
-26.57
-25.53
-22.89
-18.78
-13.63
-8.03
-2.53
2.50
6.91
10.68
13.81
16.23
17.81
18.51
18.44
17.87
17.20
16.70
16.51
16.52
16.42
15.96
15.02
13.70
12.24
10.90
9.79
8.84
7.85
6.65
5.16
3.46
1.74
0.15
-1.22
-2.45
-3.67
-5.06
-6.78
-8.94
-11.61
-14.74
-18.09
-21.23
-23.56
-24.45
-23.42
-20.30
-15.37
-9.27
-2.83
3.17
8.19
11.99
14.59
16.15
16.87
17.02
16.83
16.53
16.36
16.36
16.52
16.71
16.78
16.65
16.37
16.02
15.70
15.45
15.14
14.70
14.04
13.16
12.06
10.74
9.16
7.22
4.90
2.27
-0.47
-3.10
-5.48
-7.61
-9.64
-11.78
-14.17
-16.83
-19.61
-22.17
-24.07
-24.86
-24.14
-21.79
-17.91
-12.88
-7.28
-1.67
3.50
7.93
11.51
14.30
16.32
17.68
18.43
18.68
18.50
17.97
17.23
16.46
15.90
15.69
15.91
16.45
17.11
17.63
17.78
17.50
16.81
15.83
14.69
13.53
12.46
11.45
10.42
9.15
7.46
5.25
2.62
-0.20
-2.89
-5.26
-7.35
-9.32
-11.54
-14.22
-17.44
-20.93
-24.22
-26.70
-27.81
-27.14
-24.52
-20.12
-14.35
-7.85
-1.33
4.52
9.22
12.51
14.48
15.40
15.61
15.39
14.96
14.49
14.17
14.21
14.75
15.75
17.03
18.21
18.97
19.13
18.72
17.91
16.90
15.82
14.69
13.50
12.22
10.87
9.43
7.90
6.24
4.40
2.31
-0.02
-2.59
-5.38
-8.42
-11.73
-15.30
-19.06
-22.81
-26.21
-28.88
-30.44
-30.59
-29.19
-26.25
-22.02
-16.88
-11.29
-5.73
-0.60
3.88
7.54
10.38
12.39
13.65
14.24
14.30
14.02
13.60
13.22
13.01
13.04
13.26
13.56
13.76
13.72
13.34
12.53
11.30
9.71
7.81
5.68
3.36
0.85
-1.92
-5.01
-8.41
-12.02
-15.64
-19.07
-22.17
-24.96
-27.56
-30.12
-32.66
-35.15
-37.47
-39.54
-41.35
-42.81
-43.71
-43.63
-41.98
-38.26
-32.26
-24.31
-15.12
-5.67
3.23
11.08
17.75
23.41
28.22
32.27
35.48
37.80
39.22
39.89
40.02
39.78
39.26
38.47
37.45
36.37
35.51
35.07
35.04
35.17
34.94
33.97
32.13
29.65
27.08
24.90
23.37
22.29
21.27
19.85
17.85
15.36
12.71
10.35
8.54
7.36
6.68
6.21
5.66
4.77
3.44
1.69
-0.28
-2.36
-4.53
-6.88
-9.57
-12.59
-15.75
-18.63
-20.84
-22.16
-22.67
-22.63
-22.28
-21.79
-21.08
-19.98
-18.40
-16.36
-14.05
-11.68
-9.41
-7.34
-5.53
-4.07
-2.96
-2.25
-1.92
-1.99
-2.39
-3.08
-3.97
-4.96
-5.99
-7.05
-8.20
-9.46
-10.85
-12.34
-13.85
-15.29
-16.64
-17.91
-19.19
-20.55
-21.92
-23.05
-23.55
-22.95
-20.92
-17.36
-12.52
-6.91
-1.17
4.18
8.85
12.70
15.69
17.68
18.52
18.08
16.40
13.73
10.47
7.15
4.23
2.02
0.65
0.08
0.23
0.90
1.85
2.77
3.36
3.36
2.69
1.52
0.16
-0.91
-1.33
-0.93
0.11
1.35
2.37
2.88
2.92
2.79
2.79
3.09
3.51
3.66
3.10
1.56
-0.89
-3.79
-6.51
-8.42
-9.13
-8.60
-7.12
-5.12
-3.10
-1.38
-0.15
0.58
0.86
0.83
0.58
0.29
0.14
0.23
0.57
0.96
1.12
0.79
-0.15
-1.71
-3.78
-6.16
-8.65
-10.88
-12.43
-12.87
-11.84
-9.23
-5.33
-0.71
3.88
7.75
10.44
11.82
12.00
11.26
9.86
8.00
5.74
3.07
-0.02
-3.34
-6.43
-8.67
-9.44
-8.43
-5.79
-2.15
1.63
4.82
7.07
8.49
9.42
10.25
11.02
11.53
11.48
10.66
9.09
7.05
4.81
2.59
0.47
-1.60
-3.62
-5.51
-7.13
-8.33
-9.01
-9.22
-9.09
-8.74
-8.34
-8.00
-7.84
-7.93
-8.37
-9.12
-10.14
-11.34
-12.62
-14.01
-15.58
-17.41
-19.52
-21.75
-23.70
-24.83
-24.55
-22.52
-18.75
-13.65
-7.91
-2.32
2.51
6.30
9.02
10.84
11.93
12.31
11.97
10.93
9.32
7.44
5.66
4.34
3.66
3.58
3.88
4.30
4.57
4.59
4.37
3.95
3.36
2.57
1.50
0.10
-1.59
-3.50
-5.50
-7.46
-9.34
-11.14
-12.97
-14.95
-17.14
-19.44
-21.55
-23.00
-23.19
-21.72
-18.45
-13.64
-7.93
-2.07
3.23
7.49
10.52
12.34
13.10
13.04
12.39
11.41
10.32
9.27
8.34
7.50
6.68
5.85
4.96
4.07
3.20
2.41
1.70
1.10
0.58
0.03
-0.58
-1.32
-2.20
-3.19
-4.26
-5.39
-6.64
-8.11
-9.95
-12.24
-14.97
-17.96
-20.80
-22.92
-23.73
-22.80
-20.00
-15.61
-10.25
-4.59
0.77
5.53
9.57
12.93
15.60
17.54
18.67
18.99
18.61
17.72
16.59
15.38
14.17
13.01
11.87
10.79
9.82
9.07
8.49
8.00
7.44
6.67
5.64
4.33
2.83
1.22
-0.37
-1.85
-3.21
-4.53
-6.00
-7.88
-10.41
-13.64
-17.34
-21.01
-23.96
-25.55
-25.41
-23.48
-20.08
-15.69
-10.79
-5.79
-0.95
3.55
7.53
10.83
13.30
14.95
15.91
16.43
16.70
16.85
16.94
16.98
16.93
16.82
16.64
16.35
15.90
15.22
14.35
13.35
12.35
11.33
10.26
8.99
7.40
5.43
3.14
0.68
-1.70
-3.77
-5.41
-6.60
-7.51
-8.42
-9.62
-11.35
-13.62
-16.19
-18.62
-20.36
-20.89
-19.93
-17.51
-13.86
-9.48
-4.89
-0.50
3.42
6.72
9.43
11.57
13.13
14.14
14.62
14.65
14.38
13.94
13.49
13.14
12.92
12.84
12.83
12.82
12.73
12.52
12.12
11.58
10.94
10.27
9.59
8.87
7.97
6.77
5.24
3.38
1.34
-0.73
-2.71
-4.55
-6.33
-8.17
-10.19
-12.48
-15.05
-17.84
-20.68
-23.25
-25.06
-25.64
-24.61
-21.87
-17.66
-12.49
-7.00
-1.79
2.76
6.46
9.26
11.18
12.26
12.61
12.43
11.96
11.47
11.16
11.14
11.44
11.99
12.68
13.34
13.80
13.92
13.64
13.04
12.28
11.57
11.05
10.71
10.44
10.02
9.29
8.11
6.47
4.41
2.13
-0.17
-2.28
-4.08
-5.56
-6.87
-8.26
-9.97
-12.21
-15.00
-18.16
-21.29
-23.84
-25.25
-25.07
-23.13
-19.59
-14.86
-9.48
-4.01
1.06
5.40
8.76
11.12
12.49
13.02
12.88
12.27
11.42
10.52
9.80
9.48
9.73
10.57
11.81
13.08
14.10
14.64
14.66
14.29
13.63
12.77
11.70
10.33
8.60
6.55
4.27
1.90
-0.43
-2.60
-4.56
-6.29
-7.82
-9.21
-10.55
-11.93
-13.44
-15.10
-16.88
-18.64
-20.10
-20.79
-20.26
-18.11
-14.27
-8.93
-2.69
3.70
9.52
14.23
17.62
19.71
20.66
20.63
19.81
18.31
16.28
13.96
11.66
9.65
8.14
7.13
6.48
5.98
5.44
4.80
4.13
3.58
3.29
3.30
3.56
3.90
4.10
3.93
3.21
1.90
0.05
-2.13
-4.42
-6.59
-8.49
-10.18
-11.79
-13.49
-15.44
-17.65
-19.99
-22.17
-23.81
-24.52
-24.03
-22.23
-19.18
-15.14
-10.47
-5.60
-1.02
2.88
5.86
7.85
9.00
9.52
9.66
9.58
9.40
9.11
8.71
8.22
7.70
7.22
6.81
6.51
6.37
6.40
6.57
6.82
7.07
7.24
7.31
7.25
6.98
6.38
5.37
3.89
2.07
0.13
-1.71
-3.32
-4.74
-6.12
-7.60
-9.25
-11.03
-12.88
-14.85
-16.99
-19.23
-21.32
-22.75
-22.94
-21.43
-18.17
-13.50
-8.08
-2.70
2.00
5.61
8.01
9.34
9.88
9.98
9.99
10.10
10.31
10.54
10.67
10.61
10.41
10.23
10.17
10.30
10.54
10.72
10.65
10.17
9.23
7.83
6.14
4.31
2.54
0.94
-0.44
-1.57
-2.50
-3.23
-3.76
-4.16
-4.57
-5.11
-5.87
-6.86
-7.97
-9.20
-10.61
-12.34
-14.47
-16.93
-19.27
-20.88
-21.16
-19.74
-16.72
-12.55
-7.85
-3.25
0.78
3.99
6.36
7.93
8.82
9.15
9.03
8.62
8.04
7.46
6.98
6.71
6.66
6.87
7.29
7.86
8.51
9.16
9.74
10.13
10.23
9.94
9.27
8.30
7.19
6.08
5.06
4.09
3.06
1.79
0.14
-1.85
-4.04
-6.18
-8.07
-9.59
-10.81
-11.97
-13.33
-15.06
-17.08
-19.07
-20.51
-20.88
-19.88
-17.53
-14.10
-10.01
-5.74
-1.71
1.75
4.37
6.07
6.86
6.97
6.72
6.47
6.44
6.70
7.06
7.29
7.25
6.92
6.56
6.41
6.67
7.29
8.04
8.61
8.71
8.30
7.48
6.50
5.59
4.85
4.20
3.52
2.66
1.58
0.34
-1.02
-2.42
-3.86
-5.36
-6.89
-8.44
-10.02
-11.69
-13.47
-15.44
-17.47
-19.36
-20.69
-21.03
-20.07
-17.74
-14.24
-9.97
-5.41
-1.07
2.64
5.43
7.11
7.73
7.46
6.63
5.65
4.80
4.25
4.00
3.95
3.97
3.99
4.01
4.09
4.23
4.43
4.66
4.84
4.93
4.95
4.97
5.04
5.24
5.53
5.86
6.10
6.18
6.04
5.70
5.25
4.77
4.36
4.05
3.82
3.54
3.08
2.26
0.95
-0.83
-3.00
-5.26
-7.37
-9.08
-10.32
-11.22
-12.10
-13.28
-15.03
-17.31
-19.74
-21.70
-22.54
-21.78
-19.33
-15.47
-10.80
-5.92
-1.38
2.56
5.73
8.11
9.69
10.44
10.49
9.99
9.22
8.40
7.69
7.11
6.64
6.31
6.21
6.46
7.07
7.91
8.67
9.05
8.88
8.18
7.19
6.17
5.31
4.61
3.93
3.09
1.93
0.40
-1.50
-3.64
-5.82
-7.79
-9.31
-10.27
-10.78
-11.07
-11.49
-12.32
-13.64
-15.28
-16.84
-17.80
-17.69
-16.25
-13.56
-9.96
-5.98
-2.11
1.27
4.04
6.20
7.80
8.85
9.33
9.21
8.59
7.68
6.75
6.02
5.57
5.37
5.33
5.38
5.52
5.78
6.09
6.30
6.23
5.74
4.88
3.85
2.86
2.05
1.30
0.41
-0.84
-2.49
-4.36
-6.13
-7.54
-8.50
-9.13
-9.71
-10.52
-11.69
-13.23
-15.02
-16.87
-18.54
-19.73
-20.09
-19.28
-17.09
-13.58
-9.11
-4.29
0.20
3.85
6.43
7.98
8.75
8.97
8.81
8.35
7.70
7.00
6.47
6.35
6.72
7.50
8.42
9.15
9.47
9.33
8.82
8.16
7.50
6.86
6.18
5.28
4.05
2.48
0.65
-1.23
-2.94
-4.32
-5.26
-5.78
-5.99
-6.13
-6.41
-7.01
-8.05
-9.53
-11.36
-13.38
-15.34
-16.84
-17.44
-16.77
-14.61
-11.08
-6.62
-1.87
2.54
6.12
8.65
10.10
10.57
10.29
9.45
8.33
7.14
6.12
5.41
5.11
5.19
5.57
6.19
6.90
7.65
8.38
9.01
9.51
9.84
9.92
9.70
9.18
8.29
7.04
5.50
3.68
1.67
-0.42
-2.46
-4.30
-5.83
-7.15
-8.40
-9.80
-11.57
-13.81
-16.45
-19.23
-21.74
-23.46
-23.98
-22.95
-20.29
-16.20
-11.17
-5.82
-0.76
3.57
7.00
9.50
11.17
12.14
12.46
12.20
11.47
10.43
9.33
8.42
7.89
7.87
8.28
8.96
9.69
10.29
10.62
10.72
10.65
10.47
10.13
9.52
8.52
7.14
5.48
3.72
2.04
0.54
-0.79
-2.02
-3.26
-4.61
-6.17
-8.05
-10.40
-13.32
-16.70
-20.26
-23.44
-25.60
-26.16
-24.82
-21.67
-17.12
-11.82
-6.44
-1.56
2.46
5.43
7.36
8.35
8.59
8.37
7.96
7.61
7.47
7.60
7.92
8.34
8.76
9.09
9.37
9.60
9.80
9.93
9.98
9.88
9.57
9.00
8.11
6.90
5.42
3.76
1.99
0.18
-1.60
-3.34
-4.99
-6.52
-7.96
-9.40
-10.98
-12.89
-15.22
-17.85
-20.49
-22.60
-23.58
-22.96
-20.57
-16.56
-11.48
-6.06
-1.01
3.16
6.22
8.24
9.48
10.21
10.62
10.81
10.80
10.63
10.32
9.94
9.55
9.22
9.04
9.06
9.34
9.83
10.42
10.98
11.34
11.42
11.22
10.77
10.08
9.15
7.88
6.22
4.18
1.88
-0.53
-2.82
-4.91
-6.80
-8.58
-10.41
-12.46
-14.76
-17.29
-19.82
-21.99
-23.39
-23.61
-22.39
-19.70
-15.74
-10.95
-5.90
-1.11
3.04
6.37
8.89
10.70
11.86
12.45
12.50
12.07
11.29
10.32
9.26
8.25
7.35
6.57
5.98
5.63
5.55
5.73
6.08
6.46
6.83
7.13
7.27
7.21
6.81
6.01
4.78
3.22
1.48
-0.20
-1.64
-2.84
-3.89
-5.05
-6.60
-8.77
-11.61
-14.95
-18.36
-21.26
-23.08
-23.32
-21.78
-18.56
-14.03
-8.68
-3.12
2.04
6.31
9.40
11.22
11.93
11.79
11.14
10.24
9.29
8.44
7.85
7.67
7.97
8.65
9.37
9.80
9.64
8.84
7.65
6.44
5.54
5.11
5.07
5.19
5.18
4.83
4.04
2.84
1.32
-0.42
-2.27
-4.12
-5.90
-7.61
-9.30
-11.13
-13.28
-15.80
-18.53
-21.03
-22.66
-22.78
-20.97
-17.21
-12.02
-6.15
-0.45
4.47
8.30
11.04
12.82
13.82
14.21
14.09
13.62
12.98
12.35
11.82
11.43
11.10
10.74
10.32
9.83
9.37
9.06
8.93
8.95
8.99
8.85
8.41
7.57
6.28
4.62
2.68
0.57
-1.53
-3.48
-5.12
-6.42
-7.45
-8.42
-9.56
-11.08
-13.10
-15.52
-18.10
-20.45
-22.10
-22.68
-21.92
-19.78
-16.38
-12.02
-7.03
-1.83
3.15
7.49
10.89
13.17
14.37
14.69
14.44
13.93
13.41
13.00
12.81
12.86
13.11
13.44
13.66
13.65
13.38
12.92
12.37
11.84
11.28
10.59
9.64
8.43
7.05
5.63
4.21
2.70
0.96
-1.09
-3.37
-5.69
-7.83
-9.72
-11.49
-13.46
-15.93
-18.99
-22.41
-25.67
-28.09
-29.03
-28.14
-25.37
-20.96
-15.40
-9.23
-3.05
2.68
7.55
11.29
13.79
15.05
15.29
14.82
14.00
13.17
12.57
12.35
12.46
12.81
13.22
13.54
13.61
13.39
12.88
12.20
11.49
10.81
10.22
9.59
8.80
7.71
6.28
4.56
2.70
0.88
-0.81
-2.32
-3.73
-5.17
-6.78
-8.73
-11.07
-13.85
-16.98
-20.23
-23.14
-25.17
-25.75
-24.48
-21.31
-16.56
-10.85
-4.88
0.69
5.45
9.16
11.75
13.28
13.86
13.73
13.23
12.67
12.32
12.29
12.54
12.87
13.16
13.32
13.42
13.47
13.52
13.49
13.30
12.85
12.10
11.02
9.59
7.82
5.70
3.27
0.63
-1.99
-4.39
-6.35
-7.79
-8.80
-9.64
-10.60
-12.04
-14.15
-16.93
-20.14
-23.25
-25.63
-26.67
-25.95
-23.35
-19.13
-13.84
-8.16
-2.73
2.07
6.07
9.31
11.90
13.90
15.30
16.08
16.27
15.98
15.42
14.78
14.19
13.69
13.26
12.85
12.41
11.92
11.32
10.62
9.88
9.14
8.51
8.00
7.56
7.05
6.27
5.04
3.33
1.20
-1.17
-3.53
-5.70
-7.56
-9.14
-10.61
-12.20
-14.09
-16.34
-18.84
-21.21
-23.02
-23.79
-23.17
-21.01
-17.42
-12.71
-7.42
-2.18
2.50
6.23
8.90
10.63
11.66
12.25
12.58
12.74
12.75
12.71
12.67
12.80
13.15
13.69
14.34
14.92
15.34
15.53
15.51
15.30
14.94
14.49
13.96
13.34
12.66
11.92
11.06
10.08
8.95
7.69
6.37
5.09
3.93
2.96
2.13
1.26
0.07
-1.75
-4.38
-7.71
-11.28
-14.31
-15.91
-15.41
-12.47
-7.29
-0.50
7.02
14.40
20.92
26.23
30.35
33.60
36.47
39.40
42.66
46.19
49.72
52.87
55.43
57.63
60.24
64.49
71.55
82.02
95.48
110.63
125.74
139.57
152.00
164.09
177.58
193.97
213.90
236.77
260.75
282.98
299.76
306.92
300.58
278.21
239.75
187.94
127.93
65.83
7.16
-44.22
-86.47
-119.23
-143.02
-158.88
-168.32
-173.49
-177.19
-182.55
-192.51
-209.17
-233.12
-262.93
-295.08
-324.49
-345.71
-354.43
-348.88
-330.18
-301.76
-267.96
-232.66
-198.36
-166.21
-136.71
-110.28
-87.66
-69.57
-56.32
-47.44
-41.82
-38.03
-34.84
-31.51
-27.90
-24.31
-21.08
-18.46
-16.44
-14.81
-13.33
-11.91
-10.67
-9.96
-10.21
-11.68
-14.41
-18.11
-22.15
-25.75
-28.19
-28.91
-27.74
-24.85
-20.70
-15.86
-10.89
-6.14
-1.83
1.97
5.20
7.80
9.66
10.67
10.86
10.25
9.03
7.34
5.36
3.26
1.23
-0.56
-1.95
-2.88
-3.30
-3.25
-2.78
-1.96
-0.78
0.72
2.56
4.68
6.99
9.44
11.98
14.66
17.54
20.74
24.30
28.14
32.03
35.60
38.51
40.52
41.69
42.35
43.09
44.50
47.00
50.68
55.29
60.32
65.14
69.11
71.73
72.72
72.07
69.94
66.66
62.52
57.67
52.13
45.75
38.33
29.73
19.93
9.06
-2.60
-14.61
-26.29
-36.76
-45.06
-50.43
-52.47
-51.30
-47.53
-42.04
-35.80
-29.61
-23.94
-18.98
-14.72
-11.09
-8.11
-5.88
-4.46
-3.85
-3.75
-3.72
-3.45
-3.08
-3.27
-4.93
-8.51
-13.46
-18.23
-20.72
-19.29
-13.58
-4.67
5.42
14.60
21.56
26.07
28.59
29.77
30.03
29.44
28.00
25.86
23.40
21.07
19.24
17.90
16.76
15.33
13.19
10.27
6.84
3.54
1.06
-0.14
-0.02
1.00
2.12
2.44
1.29
-1.65
-6.15
-11.52
-16.80
-20.98
-23.25
-23.21
-20.91
-16.76
-11.38
-5.46
0.45
5.94
10.87
15.29
19.38
23.28
27.10
30.71
33.78
35.89
36.65
35.90
33.79
30.71
27.13
23.51
20.16
17.17
14.57
12.30
10.28
8.36
6.38
4.10
1.39
-1.74
-5.09
-8.28
-11.00
-13.19
-15.10
-17.28
-20.23
-24.12
-28.61
-32.86
-35.75
-36.34
-34.09
-29.11
-22.11
-14.16
-6.44
0.03
4.64
7.25
8.13
7.75
6.65
5.22
3.65
1.99
0.23
-1.51
-3.06
-4.19
-4.75
-4.71
-4.19
-3.43
-2.70
-2.22
-2.06
-2.22
-2.63
-3.19
-3.90
-4.71
-5.67
-6.73
-7.89
-9.18
-10.72
-12.77
-15.54
-19.05
-22.93
-26.38
-28.41
-28.15
-25.15
-19.60
-12.26
-4.17
3.57
10.20
15.37
19.13
21.68
23.18
23.70
23.29
22.08
20.36
18.54
17.00
15.92
15.25
14.76
14.16
13.26
12.01
10.42
8.54
6.43
4.16
1.89
-0.24
-2.10
-3.63
-4.83
-5.74
-6.49
-7.30
-8.53
-10.56
-13.57
-17.31
-21.06
-23.76
-24.36
-22.27
-17.57
-11.00
-3.68
3.37
9.36
13.97
17.16
19.01
19.65
19.24
17.97
16.15
14.18
12.38
10.99
10.10
9.67
9.58
9.72
9.98
10.30
10.62
10.84
10.85
10.53
9.75
8.50
6.83
4.86
2.78
0.74
-1.26
-3.28
-5.44
-7.95
-10.86
-14.15
-17.63
-20.91
-23.43
-24.55
-23.77
-20.85
-16.04
-9.81
-2.92
3.90
10.12
15.37
19.46
22.28
23.81
24.13
23.51
22.28
20.76
19.27
17.96
16.89
16.07
15.48
15.10
14.77
14.31
13.47
12.11
10.21
7.94
5.54
3.27
1.24
-0.56
-2.28
-4.09
-6.16
-8.61
-11.53
-14.90
-18.60
-22.24
-25.30
-27.06
-26.94
-24.59
-20.15
-14.15
-7.39
-0.74
5.13
9.80
13.19
15.37
16.47
16.62
15.95
14.65
12.92
11.10
9.52
8.42
7.92
7.94
8.26
8.62
8.81
8.69
8.29
7.66
6.87
5.96
4.92
3.65
2.09
0.15
-2.18
-4.84
-7.76
-10.81
-13.90
-16.90
-19.55
-21.47
-22.16
-21.14
-18.20
-13.50
-7.57
-1.05
5.50
11.86
18.06
24.21
30.19
35.54
39.53
41.49
41.14
38.75
35.15
31.35
28.18
25.95
24.48
23.25
21.73
19.64
16.92
13.82
10.54
7.21
3.85
0.38
-3.29
-7.15
-11.09
-14.94
-18.50
-21.65
-24.35
-26.61
-28.48
-29.90
-30.74
-30.81
-29.94
-28.00
-25.08
-21.25
-16.73
-11.76
-6.69
-1.90
2.20
5.33
7.40
8.45
8.70
8.35
7.63
6.81
6.14
5.89
6.20
7.14
8.52
10.06
11.41
12.30
12.60
12.29
11.52
10.44
9.24
7.99
6.70
5.27
3.65
1.85
-0.07
-1.92
-3.58
-5.03
-6.42
-7.96
-9.89
-12.36
-15.25
-18.25
-20.76
-22.11
-21.77
-19.50
-15.45
-10.14
-4.27
1.45
6.50
10.54
13.44
15.18
15.81
15.48
14.39
12.83
11.11
9.54
8.36
7.71
7.56
7.79
8.19
8.49
8.53
8.21
7.63
6.93
6.25
5.65
5.11
4.48
3.63
2.49
1.08
-0.43
-1.88
-3.18
-4.34
-5.45
-6.72
-8.34
-10.41
-12.92
-15.74
-18.65
-21.39
-23.57
-24.77
-24.60
-22.77
-19.18
-14.05
-7.94
-1.58
4.25
8.97
12.26
14.12
14.70
14.28
13.07
11.32
9.30
7.24
5.43
3.99
3.04
2.57
2.52
2.84
3.39
4.02
4.49
4.64
4.35
3.68
2.81
1.86
0.89
-0.23
-1.64
-3.43
-5.49
-7.55
-9.30
-10.54
-11.30
-11.83
-12.51
-13.67
-15.50
-17.90
-20.51
-22.69
-23.70
-22.95
-20.16
-15.50
-9.52
-3.08
2.96
7.90
11.33
13.14
13.42
12.47
10.65
8.45
6.28
4.49
3.27
2.60
2.38
2.47
2.83
3.38
4.11
4.96
5.81
6.53
6.89
6.68
5.77
4.13
1.87
-0.73
-3.30
-5.50
-7.13
-8.23
-9.00
-9.73
-10.63
-11.84
-13.33
-15.05
-16.91
-18.70
-20.12
-20.71
-20.12
-18.09
-14.72
-10.33
-5.44
-0.59
3.81
7.43
10.08
11.62
11.97
11.22
9.62
7.48
5.22
3.22
1.76
1.02
0.99
1.53
2.47
3.55
4.64
5.64
6.54
7.28
7.69
7.56
6.73
5.19
3.10
0.72
-1.68
-3.99
-6.22
-8.46
-10.82
-13.25
-15.70
-18.09
-20.35
-22.40
-24.12
-25.21
-25.28
-23.93
-20.98
-16.55
-11.10
-5.34
0.10
4.70
8.29
10.95
12.86
14.17
14.94
15.12
14.71
13.78
12.44
10.89
9.28
7.70
6.24
4.96
4.00
3.41
3.20
3.31
3.64
4.11
4.59
4.95
5.07
4.75
3.84
2.30
0.21
-2.18
-4.55
-6.65
-8.37
-9.75
-10.95
-12.20
-13.68
-15.44
-17.35
-19.01
-19.96
-19.72
-17.98
-14.70
-10.08
-4.51
1.55
7.69
13.45
18.35
21.96
23.95
24.29
23.31
21.64
19.93
18.69
18.05
17.85
17.78
17.59
17.22
16.82
16.64
16.82
17.40
18.28
19.24
20.02
20.30
19.73
18.09
15.35
11.80
7.97
4.45
1.58
-0.88
-3.85
-8.75
-16.96
-29.22
-45.16
-63.12
-80.50
-94.37
-102.23
-102.65
-95.57
-82.28
-65.03
-46.49
-29.12
-14.74
-4.25
2.43
6.12
8.01
9.34
11.05
13.70
17.44
21.99
26.77
31.07
34.18
35.61
35.26
33.47
30.86
28.14
25.75
23.76
21.92
19.80
17.18
14.09
10.89
8.08
6.05
4.90
4.51
4.58
4.79
4.99
5.09
4.97
4.52
3.55
1.84
-0.68
-3.96
-7.79
-11.77
-15.37
-18.03
-19.23
-18.59
-16.03
-11.84
-6.64
-1.27
3.51
7.22
9.73
11.19
11.86
11.94
11.53
10.65
9.32
7.70
6.01
4.55
3.54
3.07
3.07
3.37
3.76
4.08
4.26
4.24
4.04
3.67
3.15
2.49
1.69
0.73
-0.41
-1.72
-3.15
-4.63
-5.98
-7.06
-7.78
-8.18
-8.44
-8.81
-9.46
-10.52
-11.93
-13.52
-15.06
-16.32
-17.01
-16.88
-15.77
-13.59
-10.49
-6.82
-3.05
0.36
3.11
5.18
6.73
7.91
8.83
9.44
9.63
9.37
8.78
8.04
7.45
7.19
7.27
7.62
8.07
8.46
8.71
8.71
8.44
7.88
7.13
6.26
5.37
4.48
3.53
2.43
1.00
-0.82
-3.04
-5.50
-8.01
-10.38
-12.49
-14.38
-16.16
-17.92
-19.68
-21.28
-22.44
-22.82
-22.07
-19.98
-16.58
-12.03
-6.77
-1.35
3.67
7.77
10.61
12.15
12.56
12.14
11.16
9.77
8.00
5.79
3.21
0.48
-2.02
-3.86
-4.83
-4.98
-4.72
-4.62
-5.16
-6.50
-8.54
-11.05
-13.79
-16.72
-19.87
-23.22
-26.65
-30.08
-33.90
-39.10
-47.08
-58.72
-73.74
-90.26
-105.34
-116.04
-120.57
-118.86
-112.19
-102.40
-90.90
-78.53
-65.81
-53.65
-43.60
-37.46
-36.26
-39.29
-43.90
-46.35
-43.45
-33.93
-19.03
-1.70
14.90
29.02
40.93
52.40
65.41
80.84
98.14
115.81
132.31
146.79
158.97
168.68
175.35
178.02
175.73
168.25
156.32
141.59
126.01
111.10
97.41
84.56
71.58
57.70
42.75
27.41
12.81
0.12
-9.95
-17.46
-23.06
-27.71
-32.11
-36.46
-40.43
-43.39
-44.72
-44.16
-41.86
-38.32
-34.13
-29.74
-25.40
-21.18
-17.09
-13.25
-9.90
-7.31
-5.67
-4.93
-4.82
-4.92
-4.84
-4.39
-3.60
-2.65
-1.77
-1.10
-0.63
-0.28
0.11
0.57
1.06
1.46
1.65
1.58
1.19
0.45
-0.75
-2.39
-4.36
-6.39
-8.20
-9.63
-10.72
-11.74
-13.01
-14.81
-17.16
-19.84
-22.51
-24.77
-26.23
-26.46
-25.11
-21.91
-16.90
-10.47
-3.33
3.60
9.55
14.01
16.88
18.34
18.67
18.16
16.99
15.35
13.43
11.52
9.85
8.61
7.82
7.41
7.20
7.03
6.78
6.42
6.01
5.63
5.35
5.20
5.10
4.86
4.24
3.11
1.42
-0.66
-2.88
-4.97
-6.75
-8.25
-9.63
-11.17
-13.11
-15.62
-18.61
-21.78
-24.62
-26.52
-26.96
-25.61
-22.47
-17.91
-12.49
-6.89
-1.69
2.75
6.24
8.76
10.41
11.30
11.62
11.58
11.40
11.24
11.15
11.09
11.01
10.88
10.72
10.57
10.45
10.35
10.18
9.88
9.44
8.85
8.16
7.42
6.64
5.83
4.94
3.95
2.81
1.46
-0.14
-1.99
-4.03
-6.09
-8.06
-9.88
-11.63
-13.49
-15.64
-18.18
-20.97
-23.64
-25.66
-26.51
-25.81
-23.44
-19.58
-14.61
-9.09
-3.53
1.59
5.96
9.39
11.83
13.31
13.94
13.87
13.33
12.64
12.06
11.81
11.92
12.28
12.78
13.28
13.76
14.24
14.74
15.23
15.51
15.41
14.77
13.56
11.90
9.96
7.92
5.87
3.89
1.95
0.06
-1.75
-3.41
-4.87
-6.11
-7.21
-8.27
-9.41
-10.68
-12.12
-13.74
-15.54
-17.46
-19.32
-20.79
-21.43
-20.78
-18.57
-14.90
-10.19
-5.11
-0.29
3.83
7.09
9.48
11.03
11.78
11.77
11.08
9.94
8.66
7.65
7.15
7.29
7.97
8.98
10.09
11.10
11.88
12.37
12.51
12.21
11.41
10.06
8.27
6.31
4.46
2.94
1.79
0.84
-0.15
-1.41
-2.98
-4.78
-6.65
-8.42
-10.03
-11.56
-13.18
-15.02
-17.12
-19.30
-21.19
-22.35
-22.29
-20.70
-17.52
-13.02
-7.76
-2.40
2.46
6.42
9.36
11.40
12.73
13.57
14.01
14.04
13.68
13.00
12.19
11.46
11.02
10.91
11.07
11.38
11.70
12.02
12.35
12.67
12.90
12.92
12.54
11.65
10.27
8.53
6.61
4.66
2.72
0.81
-1.11
-3.06
-5.01
-6.87
-8.60
-10.17
-11.62
-13.06
-14.59
-16.37
-18.42
-20.64
-22.74
-24.33
-24.98
-24.34
-22.30
-18.92
-14.47
-9.34
-3.94
1.32
6.10
10.12
13.21
15.32
16.53
17.05
17.15
17.09
17.03
16.98
16.89
16.60
16.05
15.29
14.49
13.83
13.44
13.25
13.10
12.74
12.00
10.79
9.18
7.34
5.48
3.74
2.21
0.85
-0.40
-1.65
-2.97
-4.33
-5.70
-7.04
-8.39
-9.76
-11.19
-12.71
-14.27
-15.85
-17.43
-18.91
-20.13
-20.83
-20.64
-19.26
-16.54
-12.59
-7.75
-2.58
2.36
6.58
9.74
11.76
12.79
13.13
13.15
13.11
13.14
13.24
13.32
13.37
13.36
13.32
13.25
13.14
12.86
12.39
11.75
11.01
10.27
9.61
8.99
8.31
7.48
6.49
5.35
4.17
3.02
1.95
0.94
-0.08
-1.21
-2.50
-3.98
-5.63
-7.30
-8.88
-10.29
-11.56
-12.83
-14.36
-16.31
-18.66
-21.15
-23.31
-24.59
-24.55
-22.99
-19.98
-15.83
-11.02
-6.07
-1.41
2.58
5.66
7.73
8.87
9.27
9.23
9.02
8.85
8.81
8.92
9.12
9.35
9.60
9.83
10.07
10.33
10.62
10.95
11.25
11.45
11.45
11.14
10.51
9.62
8.63
7.64
6.73
5.83
4.85
3.66
2.20
0.46
-1.45
-3.44
-5.42
-7.32
-9.09
-10.69
-12.11
-13.46
-14.91
-16.64
-18.73
-21.00
-23.04
-24.23
-24.05
-22.18
-18.78
-14.31
-9.41
-4.68
-0.53
2.89
5.57
7.58
9.03
9.94
10.38
10.42
10.19
9.80
9.40
9.08
8.90
8.87
8.92
8.96
8.90
8.69
8.32
7.81
7.23
6.61
5.98
5.32
4.61
3.83
2.99
2.08
1.12
0.02
-1.24
-2.64
-4.08
-5.40
-6.52
-7.43
-8.32
-9.39
-10.92
-12.94
-15.30
-17.62
-19.40
-20.20
-19.68
-17.70
-14.34
-9.98
-5.19
-0.64
3.08
5.63
7.04
7.61
7.75
7.79
7.82
7.74
7.42
6.87
6.29
5.98
6.10
6.60
7.18
7.52
7.38
6.78
5.97
5.19
4.57
4.04
3.40
2.50
1.30
-0.02
-1.25
-2.22
-2.91
-3.48
-4.16
-5.12
-6.41
-7.93
-9.53
-11.13
-12.78
-14.54
-16.41
-18.20
-19.50
-19.83
-18.82
-16.40
-12.81
-8.58
-4.21
-0.12
3.46
6.43
8.73
10.32
11.15
11.25
10.66
9.58
8.24
6.93
5.89
5.28
5.11
5.26
5.49
5.50
5.13
4.37
3.40
2.46
1.70
1.12
0.55
-0.22
-1.34
-2.78
-4.39
-5.98
-7.40
-8.66
-9.80
-10.86
-11.86
-12.75
-13.55
-14.32
-15.18
-16.21
-17.32
-18.20
-18.34
-17.25
-14.68
-10.81
-6.17
-1.50
2.63
5.90
8.36
10.16
11.48
12.31
12.54
12.13
11.15
9.91
8.70
7.76
7.11
6.65
6.31
6.07
6.00
6.13
6.49
6.95
7.38
7.62
7.53
7.04
6.11
4.72
2.90
0.84
-1.27
-3.24
-4.99
-6.59
-8.21
-10.07
-12.24
-14.72
-17.35
-19.88
-22.04
-23.54
-24.07
-23.40
-21.40
-18.09
-13.70
-8.67
-3.50
1.35
5.52
8.83
11.29
12.93
13.84
14.12
13.84
13.15
12.26
11.42
10.84
10.61
10.63
10.78
10.80
10.55
9.96
9.09
8.08
7.03
6.01
5.01
3.95
2.78
1.48
0.14
-1.20
-2.48
-3.67
-4.78
-5.82
-6.85
-7.89
-9.06
-10.42
-12.12
-14.14
-16.30
-18.18
-19.29
-19.20
-17.70
-14.90
-11.19
-7.12
-3.22
0.13
2.81
4.87
6.44
7.67
8.61
9.23
9.51
9.44
9.10
8.63
8.24
8.08
8.19
8.52
8.93
9.27
9.42
9.34
9.04
8.60
8.07
7.43
6.63
5.58
4.24
2.64
0.89
-0.87
-2.57
-4.18
-5.78
-7.45
-9.29
-11.29
-13.44
-15.69
-17.94
-20.07
-21.82
-22.80
-22.60
-20.89
-17.53
-12.74
-7.06
-1.11
4.46
9.25
13.04
15.79
17.55
18.51
18.79
18.64
18.26
17.83
17.45
17.09
16.59
15.77
14.51
12.77
10.73
8.69
6.95
5.73
5.11
4.96
5.09
5.26
5.32
5.24
5.04
4.72
4.27
3.64
2.82
1.86
0.86
-0.10
-1.01
-2.00
-3.21
-4.78
-6.80
-9.24
-11.96
-14.72
-17.13
-18.65
-18.81
-17.28
-14.00
-9.36
-4.04
1.27
5.96
9.71
12.45
14.20
15.08
15.18
14.60
13.47
11.97
10.33
8.80
7.58
6.87
6.87
7.67
9.30
11.58
14.15
16.35
17.37
16.22
12.13
4.82
-5.37
-17.35
-29.64
-40.71
-49.48
-55.48
-58.91
-60.38
-60.51
-59.82
-58.53
-56.74
-54.44
-51.62
-48.26
-44.24
-39.42
-33.57
-26.65
-18.71
-10.08
-1.31
7.01
14.31
20.28
24.87
28.39
31.27
34.03
37.02
40.33
43.87
47.35
50.48
52.96
54.59
55.31
55.17
54.34
53.03
51.47
49.74
47.78
45.25
41.62
36.27
28.84
19.48
8.94
-1.49
-10.46
-16.94
-20.67
-22.16
-22.40
-22.45
-23.05
-24.42
-26.42
-28.66
-30.71
-32.13
-32.54
-31.62
-29.14
-25.09
-19.74
-13.63
-7.46
-1.94
2.44
5.47
7.25
8.11
8.40
8.42
8.29
8.06
7.70
7.23
6.75
6.29
5.89
5.56
5.28
5.13
5.19
5.53
6.08
6.68
7.06
6.97
6.24
4.83
2.85
0.46
-2.14
-4.75
-7.19
-9.38
-11.36
-13.23
-15.16
-17.19
-19.32
-21.37
-23.09
-24.11
-24.14
-22.96
-20.47
-16.80
-12.13
-6.75
-0.90
5.29
11.63
17.76
23.19
27.24
29.26
28.90
26.27
21.92
16.78
11.75
7.54
4.55
2.81
2.05
1.95
2.22
2.60
2.93
3.07
2.92
2.40
1.48
0.19
-1.28
-2.72
-4.01
-5.12
-6.18
-7.37
-8.80
-10.46
-12.25
-13.98
-15.58
-17.09
-18.58
-20.14
-21.71
-23.02
-23.62
-23.05
-20.92
-17.21
-12.25
-6.61
-0.99
4.03
8.08
11.10
13.15
14.45
15.11
15.22
14.87
14.11
13.08
11.91
10.74
9.68
8.82
8.24
8.02
8.19
8.61
9.07
9.37
9.33
8.94
8.27
7.42
6.48
5.46
4.27
2.89
1.32
-0.39
-2.18
-4.02
-5.90
-7.80
-9.69
-11.54
-13.38
-15.27
-17.29
-19.40
-21.41
-22.92
-23.39
-22.43
-19.80
-15.67
-10.49
-4.94
0.27
4.61
7.78
9.75
10.71
10.98
10.84
10.53
10.14
9.71
9.28
8.87
8.62
8.68
9.15
10.07
11.36
12.84
14.28
15.48
16.21
16.38
15.93
14.93
13.49
11.76
9.83
7.70
5.38
2.82
0.11
-2.56
-4.95
-6.92
-8.44
-9.68
-10.91
-12.26
-13.76
-15.27
-16.59
-17.52
-17.93
-17.71
-16.78
-15.01
-12.39
-8.98
-5.03
-0.96
2.82
5.98
8.31
9.78
10.46
10.48
9.91
8.93
7.73
6.58
5.79
5.59
6.04
6.98
8.10
9.02
9.54
9.58
9.28
8.89
8.57
8.43
8.38
8.29
8.03
7.50
6.59
5.24
3.47
1.42
-0.63
-2.46
-3.94
-5.12
-6.27
-7.70
-9.53
-11.65
-13.65
-15.02
-15.38
-14.54
-12.55
-9.69
-6.30
-2.69
0.86
4.15
7.07
9.48
11.33
12.60
13.25
13.32
12.83
11.83
10.47
8.96
7.57
6.56
6.11
6.23
6.78
7.49
8.07
8.36
8.24
7.77
7.04
6.12
5.10
4.07
3.08
2.16
1.24
0.18
-1.12
-2.75
-4.66
-6.71
-8.73
-10.56
-12.19
-13.69
-15.23
-16.86
-18.57
-20.17
-21.34
-21.74
-21.09
-19.28
-16.36
-12.60
-8.37
-4.13
-0.25
3.02
5.60
7.51
8.84
9.66
9.98
9.77
9.05
7.91
6.65
5.61
5.08
5.16
5.74
6.58
7.39
7.94
8.13
8.03
7.70
7.22
6.66
6.01
5.29
4.45
3.43
2.13
0.51
-1.42
-3.53
-5.65
-7.58
-9.28
-10.88
-12.57
-14.57
-17.02
-19.89
-22.93
-25.78
-28.07
-29.44
-29.63
-28.53
-26.14
-22.63
-18.31
-13.56
-8.88
-4.77
-1.68
0.17
0.75
0.30
-0.82
-2.23
-3.64
-4.82
-5.46
-5.17
-3.55
-0.39
4.18
9.69
15.59
21.53
27.53
33.88
40.77
47.94
54.62
59.74
62.39
62.22
59.53
55.06
49.63
43.92
38.31
33.06
28.33
24.14
20.31
16.32
11.41
4.94
-3.32
-12.88
-22.53
-30.67
-35.82
-37.08
-34.60
-29.56
-23.90
-19.66
-18.23
-19.77
-23.14
-26.43
-27.66
-25.66
-20.33
-12.49
-3.37
5.86
14.28
21.31
26.43
29.34
29.95
28.60
26.05
23.13
20.40
17.91
15.22
11.80
7.31
1.90
-3.99
-9.84
-15.42
-20.77
-26.21
-31.98
-38.14
-44.40
-50.33
-55.44
-59.21
-61.26
-61.32
-59.38
-55.59
-50.37
-44.17
-37.37
-30.16
-22.45
-13.99
-4.46
6.36
18.53
31.87
45.99
60.16
73.49
84.97
93.60
98.50
99.00
94.82
86.06
73.37
57.89
41.12
24.66
9.90
-2.19
-11.19
-17.08
-20.19
-21.01
-20.18
-18.50
-16.76
-15.74
-15.87
-17.19
-19.25
-21.43
-23.11
-24.01
-24.24
-24.14
-24.09
-24.25
-24.61
-24.96
-25.19
-25.33
-25.50
-25.91
-26.59
-27.48
-28.33
-28.79
-28.56
-27.39
-25.13
-21.78
-17.53
-12.66
-7.62
-2.81
1.47
5.01
7.73
9.56
10.49
10.53
9.80
8.50
6.84
5.14
3.57
2.34
1.52
1.15
1.17
1.46
1.87
2.21
2.38
2.32
2.10
1.73
1.25
0.59
-0.28
-1.33
-2.53
-3.75
-4.94
-6.12
-7.38
-8.88
-10.75
-13.00
-15.51
-18.06
-20.26
-21.72
-22.08
-21.07
-18.63
-14.97
-10.55
-5.98
-1.85
1.44
3.80
5.39
6.48
7.29
7.86
8.18
8.17
7.88
7.50
7.26
7.29
7.62
8.12
8.62
9.05
9.34
9.45
9.32
8.83
7.78
6.08
3.80
1.14
-1.58
-4.05
-6.08
-7.61
-8.74
-9.63
-10.49
-11.42
-12.52
-13.82
-15.31
-16.87
-18.29
-19.24
-19.28
-18.09
-15.62
-12.12
-8.10
-4.13
-0.61
2.32
4.80
7.06
9.25
11.28
12.91
13.88
14.10
13.67
12.92
12.14
11.58
11.28
11.17
11.12
11.03
10.88
10.64
10.34
9.98
9.53
8.91
8.06
6.96
5.66
4.23
2.71
1.11
-0.68
-2.71
-5.03
-7.55
-10.15
-12.69
-15.12
-17.46
-19.73
-21.77
-23.20
-23.52
-22.28
-19.34
-14.92
-9.64
-4.25
0.61
4.59
7.69
10.17
12.27
14.19
15.87
17.17
17.88
17.92
17.34
16.34
15.22
14.18
13.35
12.63
11.88
10.91
9.61
7.97
6.12
4.35
2.95
2.16
2.05
2.43
2.98
3.34
3.23
2.54
1.43
0.13
-0.96
-1.42
-0.96
0.48
2.46
3.94
3.57
0.17
-6.59
-15.71
-25.02
-31.93
-34.37
-31.68
-24.73
-15.44
-5.84
2.66
9.49
14.79
18.83
21.86
23.99
25.40
26.44
27.54
28.96
30.70
32.39
33.52
33.74
32.95
31.36
29.42
27.53
26.01
25.00
24.33
23.66
22.50
20.45
17.29
13.17
8.52
3.86
-0.31
-3.74
-6.47
-8.70
-10.68
-12.62
-14.56
-16.44
-18.23
-19.85
-21.37
-22.84
-24.40
-26.11
-27.96
-29.70
-30.98
-31.35
-30.41
-27.99
-24.21
-19.54
-14.57
-9.92
-5.94
-2.75
-0.22
1.86
3.63
5.07
6.09
6.60
6.68
6.57
6.57
6.85
7.39
7.92
8.15
7.98
7.57
7.27
7.39
8.00
8.82
9.38
9.20
8.10
6.28
4.16
2.20
0.73
-0.14
-0.53
-0.67
-0.78
-1.07
-1.68
-2.64
-3.88
-5.14
-6.12
-6.69
-6.97
-7.46
-8.80
-11.38
-14.99
-18.70
-21.04
-20.64
-16.90
-10.29
-2.33
4.95
9.86
11.68
10.96
9.21
8.25
9.34
12.66
17.09
20.74
21.64
18.60
11.76
2.41
-7.28
-15.05
-19.28
-19.69
-17.68
-16.57
-21.09
-36.05
-64.17
-103.98
-148.86
-188.12
-210.22
-206.86
-176.02
-122.71
-56.90
10.08
68.91
114.06
143.60
157.82
157.97
145.85
124.04
96.36
67.62
42.68
25.03
15.83
13.83
16.11
19.45
21.64
22.14
21.80
22.10
24.02
27.63
31.92
35.49
37.19
36.51
33.68
29.37
24.36
19.30
14.79
11.27
9.12
8.51
9.27
10.97
13.02
14.89
16.23
16.92
16.96
16.43
15.48
14.34
13.32
12.76
12.83
13.45
14.32
14.98
15.02
14.25
12.78
11.07
9.82
9.81
11.48
14.40
17.11
17.42
13.36
4.29
-8.50
-22.24
-33.75
-40.86
-43.18
-41.87
-38.68
-34.87
-30.74
-25.85
-19.75
-12.70
-5.69
-0.09
3.01
3.20
0.89
-2.90
-6.92
-10.04
-11.59
-11.47
-10.18
-8.54
-7.35
-7.04
-7.68
-8.94
-10.42
-11.78
-12.93
-13.81
-14.41
-14.71
-14.65
-14.36
-14.20
-14.67
-16.07
-18.38
-21.04
-23.19
-24.02
-23.00
-20.26
-16.43
-12.44
-9.15
-7.14
-6.54
-7.08
-8.31
-9.78
-11.26
-12.72
-14.27
-15.99
-17.89
-19.91
-22.13
-24.80
-28.33
-32.96
-38.58
-44.50
-49.73
-53.30
-54.81
-54.57
-53.64
-53.31
-54.69
-58.42
-64.54
-72.31
-80.16
-85.66
-86.07
-79.21
-64.49
-43.51
-19.81
2.51
20.38
32.93
41.83
50.23
61.29
76.96
97.59
122.38
150.34
180.97
214.23
250.20
288.12
325.95
360.49
388.04
405.39
410.66
403.75
385.99
359.85
328.33
294.70
261.97
232.31
206.39
182.96
159.29
132.16
99.37
60.60
17.65
-26.53
-69.14
-108.41
-143.90
-175.87
-204.49
-229.45
-250.18
-266.07
-276.85
-282.62
-283.56
-279.80
-271.44
-258.93
-243.33
-226.12
-208.69
-191.90
-175.94
-160.68
-146.18
-133.00
-122.09
-114.09
-108.79
-104.97
-100.92
-95.23
-87.36
-77.66
-66.89
-55.56
-43.61
-30.50
-15.80
0.23
16.57
31.77
44.31
53.26
58.58
60.92
61.31
60.49
58.56
54.97
48.87
39.71
27.65
13.62
-1.06
-15.14
-27.75
-38.37
-46.50
-51.50
-52.78
-50.08
-43.86
-35.43
-26.70
-19.63
-15.65
-15.21
-17.81
-22.16
-26.66
-29.81
-30.61
-28.81
-24.96
-20.22
-16.00
-13.53
-13.57
-16.35
-21.67
-29.12
-38.20
-48.36
-58.93
-69.01
-77.57
-83.60
-86.36
-85.62
-81.81
-75.88
-69.01
-62.22
-56.06
-50.50
-45.07
-39.12
-32.16
-23.95
-14.49
-3.87
7.80
20.28
33.08
45.42
56.27
64.64
69.92
72.05
71.56
69.25
66.01
62.54
59.32
56.53
54.19
52.15
50.19
48.05
45.51
42.52
39.29
36.23
33.75
32.16
31.35
30.79
29.75
27.52
23.79
18.88
13.54
8.67
5.01
2.73
1.43
0.40
-1.23
-4.12
-8.51
-14.31
-21.00
-27.78
-33.77
-38.10
-40.17
-39.71
-36.92
-32.30
-26.61
-20.71
-15.38
-11.41
-9.54
-10.35
-14.07
-20.33
-27.98
-35.38
-41.00
-44.14
-45.58
-47.42
-52.55
-63.48
-81.41
-105.52
-133.04
-159.73
-181.03
-193.31
-195.01
-187.20
-173.36
-158.16
-145.89
-139.00
-137.41
-138.83
-139.96
-137.56
-129.53
-115.27
-95.50
-71.81
-46.05
-19.72
6.48
32.71
59.76
88.33
118.33
148.66
177.51
203.11
224.38
241.11
253.58
261.97
265.93
264.72
257.81
245.48
229.05
210.58
192.21
175.34
160.46
147.34
135.47
124.53
114.30
104.34
93.85
81.82
67.69
51.94
36.25
22.84
13.44
8.31
6.12
4.72
2.27
-1.80
-6.76
-11.27
-14.30
-15.75
-16.36
-17.12
-18.52
-20.38
-22.00
-22.64
-22.05
-20.69
-19.58
-19.91
-22.48
-27.33
-33.90
-41.39
-49.14
-56.94
-64.70
-71.95
-77.56
-79.88
-77.37
-69.56
-57.72
-44.73
-34.19
-29.05
-30.33
-36.79
-45.51
-53.09
-57.11
-56.92
-53.49
-48.71
-44.14
-40.35
-36.98
-33.33
-29.09
-24.68
-20.90
-18.38
-17.16
-16.60
-15.89
-14.61
-12.89
-11.39
-10.91
-11.91
-14.26
-17.43
-20.59
-23.08
-24.60
-25.30
-25.70
-26.37
-27.64
-29.36
-30.92
-31.52
-30.47
-27.55
-23.05
-17.58
-11.78
-6.00
-0.22
5.71
11.84
17.87
23.27
27.52
30.34
31.92
32.76
33.49
34.75
37.12
41.19
47.45
56.09
66.65
77.96
88.33
96.02
99.88
99.57
95.48
88.38
78.93
67.51
54.26
39.44
23.60
7.64
-7.43
-20.73
-31.64
-39.90
-45.36
-48.00
-47.75
-44.63
-38.95
-31.48
-23.53
-16.56
-11.75
-9.43
-8.81
-8.05
-4.83
2.79
15.59
32.73
51.98
70.33
84.92
93.78
96.15
92.51
84.06
72.39
58.99
45.03
31.37
18.58
7.09
-2.92
-11.40
-18.57
-24.84
-30.71
-36.63
-42.79
-49.02
-54.74
-59.24
-61.96
-62.79
-62.18
-60.98
-60.20
-60.48
-61.82
-63.31
-63.24
-59.43
-49.83
-33.36
-10.42
16.82
45.07
70.74
91.05
104.74
111.86
113.26
109.70
101.57
89.05
72.69
53.84
34.54
16.96
2.56
-8.36
-16.58
-23.32
-29.62
-35.90
-41.89
-46.99
-50.47
-51.70
-50.16
-45.43
-37.31
-25.99
-12.17
3.06
18.37
32.58
44.82
54.57
61.44
65.13
65.49
62.64
57.17
50.05
42.39
35.05
28.38
22.23
16.27
10.26
4.30
-1.24
-5.88
-9.34
-11.65
-13.14
-14.25
-15.36
-16.70
-18.26
-19.97
-21.69
-23.28
-24.63
-25.60
-25.99
-25.59
-24.29
-22.09
-19.16
-15.80
-12.35
-9.10
-6.19
-3.70
-1.66
-0.08
1.00
1.52
1.52
1.01
0.08
-1.15
-2.54
-3.94
-5.24
-6.38
-7.39
-8.29
-9.14
-9.97
-10.73
-11.33
-11.65
-11.60
-11.18
-10.49
-9.69
-8.96
-8.49
-8.37
-8.69
-9.51
-10.76
-12.29
-13.78
-14.77
-14.86
-13.70
-11.22
-7.63
-3.33
1.20
5.55
9.45
12.76
15.45
17.47
18.86
19.61
19.78
19.53
19.01
18.29
17.41
16.30
14.88
13.20
11.36
9.57
8.01
6.68
5.51
4.30
2.91
1.26
-0.61
-2.58
-4.57
-6.48
-8.28
-9.93
-11.43
-12.89
-14.47
-16.26
-18.27
-20.31
-21.94
-22.68
-22.09
-20.00
-16.60
-12.35
-7.73
-3.21
0.95
4.71
8.04
10.93
13.27
14.86
15.59
15.47
14.69
13.49
12.16
10.90
9.76
8.74
7.78
6.94
6.26
5.82
5.64
5.68
5.80
5.80
5.48
4.66
3.30
1.46
-0.66
-2.82
-4.82
-6.56
-8.05
-9.42
-10.83
-12.35
-14.07
-15.93
-17.85
-19.74
-21.39
-22.54
-22.84
-22.00
-19.85
-16.54
-12.47
-8.27
-4.69
-2.23
-1.10
-1.09
-1.72
-2.52
-3.23
-3.89
-4.84
-6.48
-9.08
-12.66
-17.01
-21.84
-26.94
-32.17
-37.48
-42.86
-48.36
-54.15
-60.55
-67.80
-75.79
-83.89
-90.95
-95.65
-97.00
-94.66
-88.98
-80.76
-70.91
-60.06
-48.52
-36.36
-23.58
-10.24
3.51
17.51
31.70
46.07
60.62
75.32
89.99
104.26
117.56
129.15
138.29
144.41
147.39
147.58
145.79
143.02
140.17
137.91
136.68
136.74
138.38
141.93
147.68
155.77
166.12
178.39
191.70
204.28
213.15
214.25
203.26
177.25
136.24
83.85
26.52
-28.84
-77.02
-115.67
-144.68
-164.52
-174.88
-174.85
-164.37
-146.10
-125.74
-110.48
-106.05
-114.20
-132.01
-153.44
-172.30
-184.72
-190.12
-190.25
-187.33
-182.47
-175.07
-163.21
-144.72
-118.37
-84.60
-45.60
-4.82
33.99
67.88
95.31
116.39
132.04
143.39
151.06
155.19
155.79
153.31
148.73
143.43
138.66
135.01
132.30
129.83
126.82
122.78
117.66
111.65
104.82
96.85
86.95
74.21
58.25
39.59
19.84
1.21
-14.34
-25.89
-33.80
-39.38
-44.07
-48.72
-53.31
-57.27
-60.10
-61.81
-63.07
-64.76
-67.36
-70.65
-73.64
-75.13
-74.18
-70.58
-64.89
-58.12
-51.22
-44.75
-38.74
-32.98
-27.39
-22.24
-18.07
-15.38
-14.15
-13.68
-12.83
-10.47
-5.93
0.66
8.53
16.52
23.33
27.85
29.31
27.40
22.58
16.13
9.90
5.69
4.51
5.97
8.46
9.79
8.22
3.14
-4.84
-14.30
-23.71
-32.10
-39.17
-45.04
-49.93
-53.96
-57.11
-59.48
-61.39
-63.31
-65.57
-68.17
-70.72
-72.66
-73.58
-73.50
-72.77
-71.70
-70.12
-67.28
-62.09
-53.75
-42.18
-28.22
-13.37
0.69
12.49
20.97
25.56
26.29
23.93
19.96
16.19
14.05
13.88
14.76
14.92
12.76
7.63
0.30
-7.57
-14.11
-17.94
-18.42
-15.75
-10.91
-5.47
-1.42
-0.57
-3.72
-10.12
-17.54
-23.12
-24.60
-21.38
-14.59
-6.47
0.70
5.46
7.32
6.50
3.41
-1.55
-7.99
-15.31
-22.71
-29.04
-32.71
-31.81
-24.49
-10.10
9.88
31.50
49.18
57.74
54.51
40.59
20.17
-1.22
-19.12
-31.43
-38.39
-41.43
-41.96
-40.97
-39.17
-37.69
-37.96
-41.12
-47.02
-53.79
-58.45
-58.11
-51.37
-38.94
-23.44
-8.15
4.04
11.64
14.63
14.00
11.28
7.90
5.16
4.07
5.35
9.22
15.28
22.43
29.28
34.65
38.04
39.70
40.39
40.71
40.62
39.37
36.02
30.04
21.91
12.95
4.87
-0.99
-4.14
-4.97
-4.22
-2.60
-0.48
2.14
5.29
8.81
12.37
15.52
17.94
19.50
20.13
19.74
18.09
14.96
10.32
4.51
-1.82
-7.92
-13.20
-17.40
-20.43
-22.17
-22.23
-19.98
-14.93
-7.14
2.50
12.45
20.96
26.81
29.78
30.57
30.50
30.81
32.20
34.61
37.51
40.18
42.15
43.42
44.20
44.85
45.47
45.98
46.13
45.65
44.48
42.70
40.42
37.61
34.15
29.91
25.01
19.93
15.38
12.03
10.20
9.61
9.69
9.78
9.48
8.69
7.49
5.94
4.04
1.92
-0.03
-1.09
-0.50
2.09
6.26
10.86
14.22
14.85
11.71
4.59
-5.80
-17.87
-29.37
-37.75
-40.87
-37.89
-29.79
-19.45
-10.81
-7.57
-11.93
-23.85
-41.23
-60.85
-79.46
-94.56
-104.79
-109.85
-110.41
-107.89
-104.25
-101.51
-101.13
-103.48
-107.62
-111.77
-113.96
-112.96
-108.57
-101.49
-92.70
-82.98
-72.60
-61.62
-50.14
-38.48
-27.23
-16.83
-7.34
1.73
11.24
22.10
34.83
49.33
65.02
81.01
96.43
110.76
123.71
135.15
144.88
152.45
157.26
158.84
157.19
152.94
147.21
141.15
135.47
129.91
123.27
113.73
99.55
79.73
54.58
25.75
-4.14
-32.17
-55.95
-73.95
-85.57
-90.83
-90.10
-83.97
-73.36
-59.73
-44.98
-31.24
-20.23
-12.88
-9.16
-8.37
-9.53
-11.79
-14.59
-17.47
-19.87
-21.09
-20.44
-17.49
-12.40
-5.95
0.76
6.59
10.88
13.49
14.65
14.71
13.79
11.93
9.15
5.86
2.73
0.51
-0.44
-0.36
-0.02
-0.32
-1.77
-4.27
-7.22
-9.85
-11.61
-12.38
-12.27
-11.50
-10.27
-8.67
-6.91
-5.32
-4.29
-4.12
-4.97
-6.78
-9.45
-12.97
-17.44
-22.97
-29.56
-36.85
-44.29
-51.19
-56.94
-61.17
-63.78
-64.90
-64.99
-64.80
-65.17
-66.91
-70.41
-75.41
-80.99
-85.83
-88.54
-88.12
-84.21
-77.11
-67.61
-56.80
-45.72
-35.22
-25.86
-17.73
-10.60
-3.97
2.73
9.84
17.33
24.83
31.74
37.59
42.36
46.47
50.66
55.58
61.45
67.92
74.08
78.51
79.62
75.99
66.75
52.04
33.25
12.80
-6.38
-21.73
-31.84
-36.64
-37.13
-34.67
-30.42
-25.11
-19.24
-13.37
-8.28
-4.83
-3.56
-4.39
-6.56
-8.74
-9.39
-7.24
-1.62
7.31
18.51
30.38
41.11
49.25
54.02
55.55
54.63
52.22
49.07
45.42
41.16
36.14
30.53
24.95
20.27
17.25
16.21
16.91
18.66
20.66
22.27
23.22
23.52
23.35
22.82
22.07
21.22
20.46
19.98
19.73
19.38
18.33
16.06
12.58
8.73
6.11
6.65
11.81
21.95
36.14
52.45
68.71
83.33
95.80
106.59
116.63
126.50
135.73
142.65
144.83
139.91
126.53
105.12
77.96
48.64
21.00
-2.02
-19.12
-30.74
-38.47
-44.13
-48.88
-52.87
-55.40
-55.57
-52.96
-48.05
-42.16
-37.08
-34.39
-34.93
-38.71
-45.15
-53.34
-62.52
-71.95
-80.70
-87.51
-90.90
-89.58
-83.16
-72.64
-60.30
-49.16
-42.07
-40.82
-45.69
-55.57
-68.46
-81.84
-92.99
-98.87
-96.46
-83.25
-58.43
-24.06
14.39
48.80
70.69
74.11
58.13
27.19
-10.44
-45.81
-72.17
-86.27
-87.79
-77.77
-57.60
-29.51
1.97
29.22
42.93
35.62
5.82
-39.84
-88.31
-125.15
-140.36
-132.03
-106.07
-72.33
-40.00
-14.31
3.74
15.59
22.84
26.22
25.80
22.12
16.77
12.11
10.31
12.29
17.42
23.88
29.66
33.44
35.01
35.25
35.49
36.89
39.87
43.88
47.62
49.52
48.31
43.52
35.66
26.04
16.29
7.69
0.78
-4.76
-9.66
-14.39
-18.66
-21.32
-21.04
-17.05
-9.84
-1.10
6.95
12.61
15.41
16.24
16.65
17.94
20.47
23.56
26.01
26.84
25.80
23.46
20.91
19.21
19.04
20.49
23.14
26.27
29.14
31.20
32.23
32.40
32.12
31.83
31.75
31.62
30.64
27.74
21.94
12.75
0.48
-13.82
-28.46
-41.55
-51.38
-56.75
-57.08
-52.35
-42.99
-29.60
-13.01
5.87
25.94
45.76
63.47
76.72
82.95
79.81
66.08
42.27
11.10
-22.92
-54.62
-79.41
-94.58
-99.66
-96.18
-86.73
-74.09
-60.52
-47.65
-36.54
-27.85
-22.04
-19.29
-19.35
-21.59
-25.05
-28.67
-31.64
-33.63
-34.76
-35.48
-36.12
-36.56
-36.15
-34.00
-29.34
-21.93
-12.30
-1.47
9.30
18.94
26.78
32.53
36.21
38.03
38.15
36.74
33.91
29.74
24.48
18.57
12.66
7.48
3.56
0.99
-0.68
-2.27
-4.66
-8.31
-13.00
-17.90
-21.95
-24.35
-25.02
-24.61
-24.06
-24.24
-25.34
-26.82
-27.71
-27.08
-24.39
-19.64
-13.23
-5.58
2.90
11.86
20.87
29.31
36.43
41.55
44.24
44.46
42.58
39.33
35.64
32.65
31.40
32.69
36.73
43.12
50.83
58.47
64.66
68.39
69.34
67.87
64.95
61.81
59.59
58.85
59.44
60.49
60.76
59.19
55.38
49.89
44.13
39.94
38.85
41.33
46.27
50.97
51.97
46.08
31.73
9.84
-16.28
-41.74
-61.65
-72.73
-74.34
-68.37
-58.32
-47.80
-39.37
-34.10
-31.77
-31.75
-33.58
-37.23
-42.70
-49.63
-56.92
-63.06
-66.80
-67.72
-66.47
-64.26
-62.35
-61.41
-61.53
-62.49
-64.11
-66.49
-69.59
-72.94
-75.23
-74.62
-69.50
-59.23
-44.62
-27.48
-9.86
6.76
21.78
35.25
47.30
57.83
66.58
73.60
79.57
85.64
92.89
101.39
109.98
116.45
118.48
114.61
104.90
91.07
76.01
62.80
53.96
50.65
52.49
57.82
64.35
69.78
72.36
70.85
64.53
53.30
37.92
20.50
4.52
-5.97
-8.06
-1.57
10.19
21.52
26.85
23.22
11.45
-4.61
-20.37
-32.84
-41.61
-48.16
-54.14
-59.87
-64.08
-64.85
-60.91
-52.63
-41.90
-31.28
-22.96
-18.03
-16.18
-16.10
-16.00
-14.41
-10.80
-5.79
-0.95
1.76
0.94
-3.56
-10.43
-17.20
-21.05
-19.78
-12.50
-0.03
15.15
29.54
39.62
43.09
39.64
31.31
21.96
16.27
18.50
31.06
53.69
83.12
113.81
139.30
154.18
155.69
144.39
123.45
96.81
67.20
35.23
0.38
-36.83
-72.86
-101.10
-114.27
-108.15
-84.52
-51.58
-20.89
-2.66
-1.52
-15.03
-35.76
-55.44
-68.76
-74.83
-76.22
-76.26
-76.61
-76.64
-74.33
-67.83
-56.89
-43.04
-28.80
-16.72
-8.45
-4.29
-3.23
-3.13
-1.27
4.68
15.57
29.97
44.09
53.10
53.15
43.16
25.49
5.00
-13.08
-25.25
-30.72
-30.89
-27.88
-23.09
-16.77
-8.66
0.89
10.25
16.87
18.58
14.74
6.95
-1.53
-7.35
-8.38
-4.60
2.12
9.01
13.58
14.54
12.13
7.95
4.32
3.47
6.71
13.87
23.17
31.93
37.58
38.74
35.67
29.91
23.18
16.49
9.62
1.63
-8.26
-20.09
-33.03
-45.84
-57.54
-67.71
-76.35
-83.56
-89.20
-92.97
-94.73
-94.67
-93.15
-90.32
-85.69
-78.26
-67.15
-52.36
-35.39
-18.92
-5.93
1.72
4.33
4.63
6.98
15.54
32.46
56.64
83.80
107.81
122.89
125.52
115.42
95.23
69.15
41.36
15.01
-8.05
-26.80
-40.68
-49.44
-53.34
-53.35
-51.11
-48.47
-46.95
-47.26
-49.19
-51.85
-54.14
-55.11
-54.35
-52.10
-49.18
-46.60
-45.20
-45.17
-46.09
-47.14
-47.59
-47.25
-46.47
-46.03
-46.61
-48.40
-50.89
-52.91
-52.97
-49.66
-42.20
-30.67
-16.09
-0.27
14.70
26.95
35.41
39.80
40.54
38.30
33.66
27.10
19.07
10.25
1.56
-5.92
-11.36
-14.38
-15.22
-14.59
-13.35
-12.28
-11.78
-11.93
-12.50
-13.14
-13.45
-13.16
-12.28
-11.10
-10.07
-9.77
-10.80
-13.64
-18.55
-25.21
-32.50
-38.54
-40.94
-37.66
-27.79
-12.12
6.95
26.24
42.92
55.45
63.91
69.68
74.59
80.15
87.03
95.04
103.30
110.75
116.52
120.25
122.16
123.00
123.87
125.81
129.43
134.41
139.28
141.45
137.86
125.89
104.50
74.93
40.69
6.71
-22.15
-42.55
-53.53
-56.31
-53.31
-46.84
-38.09
-26.92
-12.52
5.60
26.63
48.06
66.11
76.95
77.90
68.39
50.06
26.27
1.08
-21.69
-39.10
-49.34
-51.79
-47.08
-37.17
-25.30
-15.38
-10.92
-13.83
-23.67
-37.71
-52.01
-62.86
-68.11
-67.64
-63.16
-57.14
-51.87
-48.65
-47.51
-47.45
-47.08
-45.29
-41.74
-36.87
-31.56
-26.57
-22.19
-18.31
-14.74
-11.50
-8.87
-7.13
-6.16
-5.48
-4.43
-2.63
-0.33
1.61
2.21
0.94
-2.03
-5.78
-9.18
-11.24
-11.61
-10.66
-9.36
-8.86
-10.00
-13.05
-17.48
-22.29
-26.42
-29.16
-30.44
-30.70
-30.57
-30.57
-31.12
-32.48
-35.00
-38.93
-44.07
-49.41
-53.04
-52.53
-45.94
-32.66
-13.84
7.82
29.07
47.22
60.75
69.57
74.57
76.98
77.94
78.30
78.54
78.81
78.94
78.50
76.97
74.08
69.93
65.04
60.03
55.27
50.61
45.60
39.79
33.09
25.90
19.00
13.33
9.91
9.74
13.61
21.68
32.59
43.04
48.20
43.30
25.79
-3.01
-37.96
-71.71
-97.50
-111.41
-113.31
-106.01
-93.45
-79.00
-64.64
-51.20
-39.13
-29.03
-21.80
-18.14
-18.02
-20.49
-23.87
-26.34
-26.60
-24.42
-20.63
-16.72
-14.10
-13.33
-13.90
-14.54
-14.02
-11.84
-8.68
-6.07
-5.65
-8.30
-13.67
-20.29
-26.29
-30.24
-31.75
-31.52
-30.86
-31.05
-32.99
-36.96
-42.78
-49.75
-56.72
-61.96
-63.50
-59.66
-49.74
-34.60
-16.53
1.44
16.59
27.37
33.66
36.49
37.27
37.24
36.97
36.54
35.75
34.47
32.78
30.98
29.38
28.22
27.62
27.58
28.05
28.90
29.82
30.36
30.03
28.42
25.32
20.86
15.28
8.88
1.97
-5.24
-12.42
-19.07
-24.74
-29.09
-32.22
-34.62
-37.08
-40.28
-44.58
-49.72
-54.82
-58.59
-59.63
-56.86
-49.78
-38.74
-24.80
-9.48
5.64
19.33
30.80
39.75
46.24
50.52
52.89
53.65
53.14
51.71
49.74
47.58
45.59
44.01
42.92
42.24
41.81
41.51
41.32
41.25
41.16
40.58
38.75
34.89
28.58
20.05
10.23
0.45
-8.05
-14.51
-18.89
-21.65
-23.57
-25.41
-27.74
-30.90
-35.01
-39.76
-44.47
-48.05
-49.19
-46.76
-40.29
-30.14
-17.52
-4.08
8.59
19.30
27.49
33.07
36.27
37.44
37.01
35.45
33.29
31.00
28.91
27.10
25.49
23.91
22.31
20.72
19.26
18.00
16.97
16.07
15.17
14.19
13.06
11.77
10.25
8.39
6.07
3.19
-0.14
-3.66
-7.00
-9.85
-12.09
-13.90
-15.74
-18.16
-21.66
-26.38
-31.95
-37.46
-41.72
-43.44
-41.70
-36.24
-27.56
-16.78
-5.26
5.74
15.38
23.21
29.20
33.43
36.07
37.26
37.21
36.12
34.35
32.28
30.29
28.63
27.33
26.25
25.07
23.52
21.45
18.98
16.46
14.25
12.57
11.26
9.90
7.93
4.96
1.01
-3.51
-7.90
-11.55
-14.12
-15.74
-16.94
-18.38
-20.68
-24.16
-28.77
-34.08
-39.36
-43.61
-45.80
-45.06
-40.88
-33.33
-23.11
-11.42
0.29
10.77
19.19
25.36
29.58
32.37
34.20
35.27
35.51
34.74
32.91
30.23
27.15
24.24
21.96
20.51
19.77
19.37
18.97
18.32
17.36
16.15
14.75
13.10
11.03
8.38
5.07
1.19
-2.98
-7.14
-10.99
-14.36
-17.20
-19.59
-21.64
-23.59
-25.74
-28.30
-31.33
-34.44
-36.84
-37.54
-35.64
-30.73
-23.07
-13.52
-3.21
6.74
15.51
22.62
27.91
31.41
33.24
33.63
32.88
31.37
29.46
27.51
25.77
24.36
23.28
22.42
21.57
20.62
19.55
18.45
17.48
16.74
16.07
15.22
13.86
11.84
9.18
6.12
2.94
-0.16
-3.08
-5.84
-8.45
-10.95
-13.38
-15.88
-18.70
-22.11
-26.23
-30.80
-35.14
-38.13
-38.72
-36.16
-30.42
-22.21
-12.74
-3.28
5.14
11.94
16.94
20.10
21.49
21.22
19.62
17.17
14.54
12.38
11.13
10.93
11.64
12.89
14.31
15.57
16.46
16.85
16.74
16.18
15.23
13.93
12.17
9.82
6.80
3.19
-0.71
-4.47
-7.67
-10.09
-11.82
-13.19
-14.77
-17.02
-20.25
-24.40
-28.94
-32.96
-35.32
-35.03
-31.61
-25.32
-17.06
-8.10
0.36
7.48
12.85
16.43
18.38
18.92
18.25
16.64
14.41
11.99
9.75
8.00
6.88
6.35
6.25
6.30
6.29
6.05
5.63
5.13
4.64
4.13
3.42
2.24
0.40
-2.12
-5.10
-8.16
-10.91
-13.15
-15.00
-16.83
-19.15
-22.43
-26.88
-32.32
-38.14
-43.29
-46.55
-46.85
-43.62
-37.01
-27.91
-17.67
-7.65
1.17
8.35
13.85
17.87
20.49
21.77
21.78
20.72
18.96
16.96
15.04
13.34
11.87
10.51
9.24
8.11
7.25
6.76
6.60
6.62
6.46
5.82
4.44
2.25
-0.61
-3.86
-7.17
-10.25
-12.93
-15.13
-16.86
-18.30
-19.77
-21.69
-24.37
-27.72
-31.15
-33.61
-34.00
-31.60
-26.40
-19.10
-10.81
-2.64
4.62
10.63
15.30
18.67
20.78
21.69
21.55
20.55
18.94
16.99
14.89
12.73
10.57
8.46
6.46
4.71
3.33
2.41
1.90
1.68
1.43
0.80
-0.51
-2.71
-5.72
-9.33
-13.12
-16.66
-19.63
-21.93
-23.78
-25.67
-28.19
-31.70
-36.03
-40.43
-43.66
-44.40
-41.70
-35.44
-26.33
-15.69
-5.02
4.52
12.29
18.16
22.34
25.14
26.82
27.57
27.63
27.26
26.72
26.17
25.56
24.74
23.51
21.80
19.74
17.67
15.93
14.71
13.95
13.28
12.28
10.54
7.94
4.58
0.80
-3.06
-6.77
-10.27
-13.75
-17.51
-21.88
-27.02
-32.82
-38.77
-43.89
-46.94
-46.77
-42.77
-35.07
-24.64
-12.92
-1.38
8.82
17.07
23.21
27.38
29.75
30.56
30.11
28.83
27.21
25.74
24.72
24.22
24.08
23.97
23.62
22.88
21.80
20.53
19.26
18.08
16.93
15.66
14.04
11.91
9.25
6.16
2.86
-0.39
-3.41
-6.20
-8.97
-12.13
-16.19
-21.47
-27.89
-34.73
-40.83
-44.78
-45.50
-42.50
-36.14
-27.42
-17.68
-8.17
0.30
7.33
12.90
17.13
20.14
22.02
22.80
22.59
21.65
20.33
19.04
18.12
17.72
17.77
18.00
18.13
17.98
17.58
17.09
16.74
16.55
16.35
15.71
14.19
11.53
7.85
3.59
-0.74
-4.67
-8.08
-11.11
-14.13
-17.48
-21.41
-25.99
-31.13
-36.50
-41.52
-45.33
-46.93
-45.43
-40.38
-32.10
-21.58
-10.26
0.43
9.47
16.42
21.42
24.86
27.13
28.46
28.87
28.37
27.12
25.52
24.09
23.33
23.53
24.61
26.21
27.85
29.08
29.66
29.56
28.85
27.62
25.94
23.82
21.25
18.21
14.66
10.67
6.37
2.01
-2.10
-5.67
-8.64
-11.13
-13.45
-15.96
-19.00
-22.71
-27.06
-31.68
-35.93
-38.87
-39.50
-37.06
-31.33
-22.84
-12.70
-2.28
7.25
15.16
21.20
25.47
28.19
29.53
29.65
28.80
27.31
25.68
24.37
23.63
23.47
23.61
23.70
23.42
22.70
21.66
20.51
19.46
18.45
17.31
15.78
13.69
10.99
7.81
4.36
0.86
-2.45
-5.42
-7.96
-10.17
-12.24
-14.52
-17.28
-20.70
-24.75
-29.08
-33.08
-35.95
-36.90
-35.36
-31.18
-24.66
-16.49
-7.63
1.00
8.68
15.00
19.82
23.16
25.13
25.90
25.62
24.54
22.91
21.00
19.07
17.32
15.83
14.66
13.76
13.09
12.61
12.28
12.03
11.81
11.52
10.98
9.99
8.37
6.01
3.05
-0.21
-3.34
-5.97
-7.93
-9.31
-10.47
-11.87
-14.01
-17.18
-21.35
-26.06
-30.34
-32.99
-32.86
-29.32
-22.57
-13.51
-3.46
6.32
15.05
22.42
28.47
33.31
36.96
39.33
40.49
40.73
40.55
40.48
40.89
41.81
43.09
44.50
45.84
47.11
48.38
49.74
51.16
52.54
53.66
54.24
53.96
52.49
49.65
45.54
40.60
35.61
31.50
28.90
28.00
28.31
28.91
28.74
27.00
23.38
18.22
12.44
7.37
4.57
5.41
10.72
20.54
33.93
49.22
64.49
77.96
88.39
95.19
98.28
97.89
94.44
88.39
80.28
70.70
60.28
49.64
39.41
30.22
22.75
17.79
16.12
18.28
24.29
33.23
43.23
51.77
56.24
54.79
46.96
33.84
17.65
0.90
-14.43
-27.34
-37.75
-46.23
-53.53
-60.38
-67.48
-75.56
-85.08
-96.00
-107.30
-116.94
-122.51
-122.22
-115.80
-104.85
-92.31
-81.29
-73.89
-70.59
-70.33
-71.35
-72.00
-71.41
-69.51
-66.78
-63.71
-60.68
-57.79
-54.96
-52.12
-49.15
-46.10
-43.14
-40.52
-38.39
-36.75
-35.32
-33.75
-31.87
-29.78
-28.00
-27.20
-27.81
-29.81
-32.60
-35.33
-37.25
-38.13
-38.22
-38.19
-38.69
-40.11
-42.46
-45.47
-48.78
-52.06
-55.04
-57.35
-58.42
-57.56
-54.15
-47.99
-39.48
-29.52
-19.29
-9.89
-1.92
4.37
9.03
12.07
13.44
13.12
11.32
8.65
5.90
3.82
2.69
2.33
2.13
1.55
0.37
-1.17
-2.54
-3.34
-3.42
-3.10
-2.93
-3.60
-5.56
-8.96
-13.50
-18.56
-23.42
-27.40
-30.31
-32.32
-34.05
-36.27
-39.66
-44.58
-50.91
-58.07
-65.00
-70.42
-72.99
-71.60
-65.75
-55.72
-42.62
-28.15
-14.18
-2.27
6.69
12.57
15.84
17.19
17.31
16.58
15.24
13.42
11.25
8.87
6.46
4.05
1.61
-0.87
-3.21
-5.13
-6.23
-6.29
-5.44
-4.16
-3.17
-3.09
-4.15
-6.11
-8.27
-9.72
-9.78
-8.30
-5.71
-2.91
-0.94
-0.62
-2.35
-6.05
-11.11
-16.60
-21.27
-23.92
-23.52
-19.68
-12.72
-3.71
5.96
14.95
22.31
27.77
31.46
33.77
35.03
35.48
35.25
34.52
33.51
32.36
31.18
29.95
28.65
27.25
25.85
24.62
23.60
22.75
21.80
20.46
18.48
15.87
12.79
9.46
6.07
2.70
-0.59
-3.76
-6.79
-9.74
-12.78
-16.16
-20.04
-24.24
-28.17
-30.87
-31.32
-28.75
-23.05
-14.78
-5.04
4.89
13.93
21.34
26.83
30.43
32.36
32.89
32.36
31.08
29.42
27.70
26.16
24.93
24.01
23.39
23.04
22.94
23.05
23.20
23.16
22.63
21.36
19.22
16.24
12.62
8.67
4.72
1.01
-2.36
-5.44
-8.46
-11.74
-15.56
-20.08
-25.05
-29.78
-33.21
-34.15
-31.74
-25.78
-16.92
-6.44
4.09
13.36
20.61
25.70
28.92
30.67
31.25
30.84
29.60
27.77
25.73
23.93
22.62
21.81
21.33
20.86
20.22
19.45
18.74
18.29
18.03
17.62
16.48
14.22
10.73
6.35
1.67
-2.69
-6.33
-9.29
-11.92
-14.73
-18.15
-22.44
-27.56
-33.13
-38.44
-42.41
-43.94
-42.17
-36.83
-28.42
-18.10
-7.30
2.73
11.14
17.69
22.51
25.90
28.15
29.49
30.07
30.04
29.63
28.95
28.14
27.22
26.22
25.10
23.89
22.62
21.36
20.20
19.13
18.05
16.79
15.11
12.87
10.00
6.63
2.98
-0.65
-4.03
-7.01
-9.69
-12.29
-15.12
-18.49
-22.55
-27.20
-31.92
-35.87
-37.98
-37.30
-33.35
-26.28
-16.89
-6.45
3.76
12.77
20.07
25.62
29.64
32.36
33.89
34.24
33.45
31.76
29.62
27.55
26.00
25.15
24.84
24.70
24.37
23.67
22.71
21.73
21.00
20.55
20.15
19.39
17.89
15.42
12.07
8.17
4.19
0.58
-2.41
-4.81
-6.85
-8.89
-11.32
-14.42
-18.32
-22.88
-27.60
-31.62
-33.86
-33.34
-29.48
-22.46
-13.22
-3.18
6.25
14.07
19.95
24.03
26.65
28.09
28.42
27.70
26.10
23.99
21.89
20.19
19.13
18.67
18.55
18.48
18.28
17.85
17.19
16.42
15.60
14.81
14.11
13.45
12.74
11.82
10.54
8.78
6.58
4.13
1.66
-0.44
-1.95
-2.74
-2.91
-2.79
-2.75
-3.08
-3.92
-5.14
-6.27
-6.61
-5.26
-1.38
5.58
15.69
28.48
42.98
58.10
72.91
86.70
99.00
109.53
118.20
125.11
130.44
134.43
137.46
140.03
142.56
145.02
146.96
147.54
145.77
140.65
131.45
118.05
101.14
82.05
61.98
42.10
23.55
7.19
-6.49
-17.37
-25.51
-30.69
-32.59
-32.25
-30.61
-27.68
-22.56
-14.22
-2.21
13.29
31.72
52.39
71.90
87.48
98.40
105.66
109.79
109.50
102.55
87.33
64.01
30.12
-14.71
-67.08
-120.56
-169.16
-209.82
-242.39
-268.41
-290.36
-316.89
-355.09
-406.38
-465.96
-526.88
-583.89
-634.47
-677.81
-677.46
-611.51
-487.04
-337.41
-196.10
-79.17
11.94
82.07
136.95
180.92
211.03
224.62
223.58
214.08
203.15
195.60
192.58
193.19
195.18
191.67
177.26
151.06
116.16
77.89
41.67
12.77
-4.10
-6.61
2.02
16.76
38.01
64.14
92.76
120.59
144.27
160.42
165.12
154.18
126.40
85.08
35.89
-15.00
-63.12
-105.95
-134.78
-141.81
-126.56
-96.34
-60.29
-25.28
5.16
27.33
43.39
53.99
57.75
52.92
38.89
16.61
-11.73
-43.70
-77.23
-110.37
-142.49
-174.44
-207.56
-242.43
-278.19
-312.77
-343.19
-365.83
-376.76
-373.32
-354.94
-322.88
-279.68
-228.52
-172.95
-116.81
-63.80
-16.72
22.53
53.28
76.43
94.06
108.83
123.01
137.82
153.67
170.47
188.13
206.90
227.38
250.38
276.91
307.88
343.54
382.70
422.10
456.11
477.99
481.58
463.48
424.26
368.26
302.10
232.70
165.87
105.85
55.63
17.21
-8.61
-22.85
-28.68
-30.98
-34.81
-43.60
-57.78
-74.73
-89.94
-98.83
-98.67
-89.58
-74.50
-58.48
-47.51
-46.96
-59.85
-85.19
-117.42
-147.57
-166.33
-167.71
-151.63
-124.02
-94.03
-69.76
-54.95
-48.27
-45.46
-42.72
-39.14
-36.84
-38.73
-45.82
-56.04
-65.20
-69.43
-67.30
-60.32
-51.77
-44.46
-39.17
-34.42
-27.72
-17.45
-3.84
11.10
24.75
35.03
40.83
41.85
38.09
29.78
17.67
3.47
-10.28
-20.98
-27.01
-28.22
-25.71
-21.01
-15.08
-8.13
-0.16
8.11
14.98
18.14
15.95
8.40
-2.71
-14.55
-24.50
-31.20
-34.73
-36.20
-36.93
-37.93
-39.61
-41.73
-43.51
-43.81
-41.36
-35.22
-25.02
-11.15
5.46
23.60
42.04
59.62
75.16
87.49
95.72
99.61
99.67
97.07
93.01
88.20
82.52
75.32
65.80
53.53
38.74
22.27
5.27
-11.09
-26.01
-39.16
-50.58
-60.47
-68.95
-75.74
-80.25
-81.74
-79.85
-74.86
-67.88
-60.52
-54.45
-50.85
-49.95
-50.95
-52.20
-51.64
-47.68
-39.69
-28.27
-14.94
-1.46
10.86
21.52
30.67
38.65
45.44
50.56
53.47
54.15
53.44
52.79
53.47
55.70
58.34
59.30
56.58
49.35
38.36
25.85
14.56
6.79
3.74
5.45
11.14
19.66
29.83
40.39
49.99
57.22
60.85
60.18
55.27
47.01
36.87
26.57
17.72
11.57
8.85
9.77
13.88
20.25
27.44
33.88
38.30
40.01
39.04
35.97
31.58
26.52
21.32
16.36
11.95
8.32
5.45
2.92
0.06
-3.67
-8.30
-13.17
-17.18
-19.30
-19.16
-17.21
-14.54
-12.40
-11.58
-12.31
-14.20
-16.65
-19.18
-21.57
-23.91
-26.44
-29.49
-33.53
-39.21
-47.10
-57.45
-69.59
-81.70
-91.24
-95.69
-93.56
-85.09
-72.17
-57.72
-44.84
-36.02
-32.76
-35.58
-43.86
-56.06
-69.93
-83.10
-93.74
-101.09
-105.46
-107.61
-108.21
-107.39
-104.96
-100.78
-95.02
-87.92
-79.52
-69.30
-56.45
-40.56
-22.35
-3.75
12.63
24.58
31.24
33.42
33.11
32.52
33.12
35.01
37.19
38.14
36.90
33.71
30.17
28.63
31.10
38.27
49.07
61.18
72.06
80.15
85.44
89.22
93.09
97.98
103.57
108.66
111.83
112.20
109.84
105.48
100.01
93.97
87.50
80.52
73.10
65.67
58.88
53.32
49.24
46.29
43.63
40.23
35.22
28.27
19.69
10.41
1.62
-5.66
-11.02
-14.71
-17.57
-20.57
-24.47
-29.55
-35.55
-41.78
-47.24
-50.77
-51.18
-47.54
-39.51
-27.64
-13.38
1.22
14.16
23.98
30.16
33.07
33.57
32.70
31.27
29.79
28.44
27.27
26.17
25.04
23.76
22.25
20.49
18.49
16.35
14.20
12.20
10.47
9.04
7.86
6.61
4.98
2.60
-0.70
-4.86
-9.59
-14.41
-18.87
-22.59
-25.51
-27.79
-29.83
-32.16
-35.23
-39.25
-44.03
-48.87
-52.62
-54.04
-52.14
-46.59
-37.87
-27.09
-15.61
-4.66
4.96
12.91
19.04
23.38
25.89
26.60
25.74
23.69
20.95
17.98
15.18
12.76
10.81
9.36
8.32
7.53
6.86
6.22
5.64
5.24
5.08
5.07
4.94
4.32
2.91
0.59
-2.47
-5.94
-9.46
-12.74
-15.71
-18.46
-21.22
-24.27
-27.88
-32.21
-37.13
-42.07
-46.08
-47.90
-46.48
-41.30
-32.59
-21.34
-9.02
2.87
13.20
21.29
26.97
30.34
31.60
30.98
28.78
25.40
21.40
17.43
14.06
11.68
10.39
10.06
10.34
10.90
11.46
11.78
11.70
11.15
10.15
8.85
7.41
5.99
4.52
2.80
0.43
-2.99
-7.71
-13.76
-20.96
-28.93
-37.18
-45.25
-52.71
-59.32
-64.99
-69.71
-73.37
-75.55
-75.58
-72.80
-66.96
-58.50
-48.54
-38.65
-30.13
-23.73
-19.34
-16.27
-13.62
-10.77
-7.60
-4.45
-1.96
-0.60
-0.66
-1.96
-3.96
-5.94
-7.00
-6.30
-3.26
2.41
10.56
20.52
31.23
41.36
49.45
54.29
55.21
52.28
46.30
38.64
30.73
23.68
18.02
13.64
10.02
6.58
2.99
-0.65
-3.81
-5.71
-5.60
-3.02
2.01
9.00
17.18
25.68
33.73
40.69
45.94
48.87
49.01
46.20
40.87
33.99
26.81
20.36
15.13
10.99
7.51
4.41
1.77
-0.02
-0.56
0.10
1.29
