1675325160.00
64.000000
-0.00
-0.00
-0.00
-0.00
-0.00
-0.00
-0.00
-0.00
-0.00
-0.00
0.00
0.01
0.01
-0.00
-0.03
-0.05
-0.05
0.00
0.13
0.36
0.66
1.01
1.37
1.72
2.06
2.40
2.79
3.24
3.80
4.42
5.06
5.66
6.20
6.68
7.15
7.68
8.31
9.14
10.09
11.04
11.88
12.56
13.14
13.76
14.65
15.96
17.91
20.32
22.90
25.38
27.58
29.57
31.68
34.32
37.81
42.54
48.15
54.10
59.83
64.97
69.58
74.14
79.34
85.71
93.76
103.00
112.62
121.73
129.77
136.75
143.30
150.75
157.77
166.64
177.95
191.79
206.97
220.57
228.25
225.36
208.53
176.87
132.76
80.05
23.07
-34.94
-92.44
-149.16
-205.23
-260.37
-313.74
-363.87
-409.83
-450.91
-486.50
-515.74
-537.23
-549.22
-549.96
-538.37
-514.21
-478.67
-433.88
-382.45
-327.02
-269.84
-212.63
-156.66
-102.95
-52.37
-5.90
35.58
71.43
101.35
125.50
144.38
158.69
169.15
176.37
180.75
182.57
182.07
179.51
175.23
169.65
163.18
156.15
148.81
141.30
133.69
126.02
118.33
110.69
103.16
95.80
88.68
81.83
75.25
68.95
62.95
57.25
51.86
46.78
42.03
37.59
33.45
29.61
26.07
22.81
19.83
17.11
14.67
12.48
10.54
8.83
7.35
6.07
4.97
4.05
3.27
2.62
2.09
1.65
1.30
1.01
0.79
0.61
0.47
0.37
0.28
0.22
0.18
0.14
0.12
0.11
0.10
0.10
0.11
0.13
0.15
0.18
0.22
0.26
0.30
0.35
0.40
0.46
0.51
0.57
0.62
0.68
0.74
0.80
0.86
0.92
0.98
1.05
1.13
1.22
1.32
1.44
1.57
1.69
1.82
1.95
2.09
2.28
2.52
2.81
3.13
3.47
3.81
4.15
4.50
4.89
5.36
5.93
6.59
7.30
8.01
8.68
9.30
9.90
10.53
11.27
12.16
13.21
14.33
15.43
16.39
17.16
17.79
18.35
18.95
19.57
20.10
20.22
19.57
17.82
14.83
10.71
5.78
0.41
-5.08
-10.57
-16.20
-22.20
-28.73
-35.64
-42.47
-48.45
-52.88
-55.35
-55.86
-54.88
-53.06
-50.98
-48.98
-47.15
-45.37
-43.40
-40.79
-36.96
-31.29
-23.52
-14.05
-4.01
5.05
11.88
16.16
18.75
21.29
25.30
31.28
38.26
44.10
46.53
44.32
37.92
29.32
21.01
14.85
11.32
9.54
7.95
5.31
1.17
-4.13
-10.00
-16.02
-22.10
-28.32
-34.67
-40.86
-46.47
-51.08
-54.38
-56.20
-56.45
-55.14
-52.53
-49.43
-47.10
-46.89
-49.84
-56.31
-65.50
-76.15
-86.50
-94.61
-98.67
-97.28
-89.75
-76.24
-57.84
-36.31
-13.71
8.23
28.38
46.21
61.50
74.08
83.62
89.77
92.57
92.55
90.72
88.16
85.53
82.79
79.23
73.91
66.23
56.29
45.00
33.84
24.34
17.46
13.27
10.92
8.94
5.83
0.60
-6.93
-16.18
-25.99
-35.14
-42.52
-47.35
-49.11
-47.57
-42.75
-34.97
-24.85
-13.11
-0.49
12.41
25.20
37.59
49.24
59.76
68.69
75.57
80.03
81.77
80.64
76.59
69.92
61.20
51.37
41.52
32.65
25.48
20.35
17.12
15.30
14.17
12.92
10.82
7.28
1.90
-5.64
-15.67
-28.35
-43.43
-59.88
-75.82
-88.86
-96.92
-98.93
-95.31
-87.66
-78.03
-68.11
-58.76
-50.08
-41.73
-33.41
-25.12
-17.09
-9.71
-3.31
1.85
5.73
8.46
10.52
12.59
15.38
19.27
24.02
28.76
32.26
33.33
31.37
26.49
19.38
10.89
1.66
-8.07
-18.34
-29.06
-39.77
-49.46
-56.88
-60.85
-60.66
-56.26
-48.11
-37.00
-23.79
-9.21
6.06
21.40
36.10
49.36
60.39
68.53
73.41
75.03
73.79
70.50
66.37
62.89
61.52
63.28
68.38
76.06
84.64
92.09
96.52
96.77
92.53
84.27
72.83
59.09
43.76
27.35
10.35
-6.68
-22.97
-37.58
-49.51
-57.94
-62.48
-63.27
-61.05
-56.85
-51.70
-46.32
-40.97
-35.47
-29.56
-23.23
-16.87
-11.31
-7.53
-6.42
-8.40
-13.36
-20.60
-28.95
-36.96
-43.08
-45.98
-44.88
-39.88
-32.10
-23.49
-16.22
-11.97
-11.13
-12.74
-14.88
-15.55
-13.60
-9.13
-3.42
1.87
5.39
6.64
6.10
4.83
3.94
4.13
5.52
7.81
10.57
13.57
16.93
20.99
25.95
31.61
37.20
41.61
43.82
43.36
40.49
36.08
31.28
27.10
24.29
23.19
23.84
26.03
29.32
33.13
36.83
39.95
42.24
43.59
43.87
42.64
39.21
32.88
23.35
10.96
-3.29
-18.12
-32.28
-44.80
-54.95
-62.01
-65.31
-64.44
-59.54
-51.65
-42.50
-34.07
-27.85
-24.43
-23.40
-23.75
-24.37
-24.52
-23.96
-22.84
-21.47
-20.09
-18.74
-17.35
-15.82
-14.13
-12.49
-11.32
-11.24
-12.93
-16.88
-23.17
-31.36
-40.53
-49.43
-56.88
-61.93
-64.00
-62.94
-59.11
-53.26
-46.32
-39.04
-31.63
-23.71
-14.51
-3.54
8.91
21.62
32.85
41.18
46.20
48.64
49.94
51.38
53.37
55.39
56.40
55.50
52.51
47.99
42.92
38.23
34.40
31.52
29.33
27.55
25.94
24.37
22.78
21.14
19.36
17.24
14.44
10.47
4.91
-2.48
-11.47
-21.42
-31.45
-40.70
-48.60
-54.82
-58.96
-60.36
-58.06
-51.20
-39.70
-24.55
-7.75
8.46
22.46
33.75
42.86
50.78
58.14
64.83
70.10
73.06
73.21
70.59
65.74
59.31
51.86
43.91
36.06
29.07
23.89
21.28
21.64
24.84
30.13
36.28
41.74
44.90
44.41
39.59
30.74
19.13
6.68
-4.59
-13.25
-18.76
-21.37
-21.75
-20.52
-17.92
-13.86
-8.25
-1.19
6.91
15.38
23.55
30.86
36.89
41.30
43.83
44.44
43.40
41.37
39.24
37.79
37.33
37.56
37.66
36.76
34.46
31.03
27.31
24.35
22.86
22.92
23.98
25.07
25.13
23.25
18.78
11.39
1.16
-11.34
-24.96
-38.11
-48.95
-55.93
-58.17
-55.67
-49.29
-40.51
-31.11
-22.80
-16.98
-14.43
-15.25
-18.75
-23.80
-29.13
-33.77
-37.27
-39.68
-41.30
-42.51
-43.62
-44.96
-46.86
-49.56
-52.94
-56.34
-58.63
-58.57
-55.31
-48.75
-39.47
-28.52
-17.03
-6.03
3.60
11.10
15.88
17.75
17.00
14.45
11.10
7.92
5.50
4.06
3.65
4.13
5.40
7.17
9.05
10.57
11.33
11.14
10.13
8.60
6.85
5.03
3.16
1.22
-0.80
-2.79
-4.58
-6.09
-7.39
-8.70
-10.23
-12.09
-14.13
-16.06
-17.55
-18.53
-19.19
-19.92
-21.16
-23.07
-25.53
-28.18
-30.57
-32.41
-33.55
-34.01
-33.70
-32.40
-29.73
-25.29
-18.87
-10.61
-0.93
9.54
20.15
30.38
39.70
47.60
53.45
56.60
56.52
53.13
46.87
38.70
29.87
21.48
14.21
8.10
2.74
-2.41
-7.61
-12.59
-16.79
-19.61
-20.99
-21.45
-22.05
-23.70
-26.84
-31.19
-36.02
-40.35
-43.21
-43.90
-41.94
-37.16
-29.49
-19.15
-6.65
7.26
21.81
36.52
51.26
66.17
81.35
96.94
112.87
128.69
143.47
155.97
164.88
169.08
167.90
161.38
150.98
138.71
126.02
112.85
98.01
80.31
59.40
35.96
11.10
-13.31
-36.57
-60.30
-88.21
-123.73
-167.56
-217.07
-267.35
-313.04
-347.89
-367.11
-369.26
-356.92
-334.62
-306.26
-274.01
-238.40
-198.94
-151.97
-93.34
-21.09
62.69
153.73
247.85
341.53
431.65
497.59
518.26
486.22
415.59
330.47
249.59
180.95
123.88
74.48
29.47
-8.84
-34.54
-42.08
-31.41
-8.11
18.29
36.58
37.72
17.59
-19.60
-64.04
-105.02
-136.67
-157.92
-171.21
-181.80
-194.17
-210.15
-228.12
-246.05
-257.00
-260.16
-257.94
-244.21
-218.65
-184.84
-146.27
-102.84
-52.43
4.21
59.65
103.54
128.19
131.30
118.20
98.84
82.46
73.79
72.18
73.43
74.22
73.82
72.80
71.11
68.49
64.01
56.64
45.25
28.45
6.62
-18.11
-43.42
-67.35
-86.95
-102.15
-113.71
-121.46
-123.10
-116.62
-98.60
-69.43
-34.08
0.48
29.28
51.90
70.17
86.99
105.83
123.47
137.53
148.39
151.36
143.85
129.23
114.02
103.33
106.49
130.14
173.38
225.52
269.97
292.42
287.76
257.06
206.47
144.30
76.46
5.33
-69.76
-149.82
-233.24
-303.49
-344.42
-350.78
-331.75
-302.82
-275.15
-252.23
-231.47
-215.04
-192.95
-161.46
-122.54
-80.73
-40.81
-6.37
20.38
40.41
54.15
64.39
70.77
71.38
64.09
47.82
23.46
-5.90
-35.29
-59.19
-71.95
-72.82
-64.57
-51.49
-37.30
-24.48
-14.71
-9.53
-10.61
-18.07
-31.60
-48.73
-64.71
-73.80
-71.74
-57.88
-36.08
-13.75
1.33
3.10
-9.64
-32.60
-57.65
-76.45
-83.89
-79.77
-67.74
-52.25
-35.96
-18.38
2.75
28.89
58.39
86.54
107.59
117.55
116.34
107.49
96.37
87.58
83.39
83.47
85.94
88.56
89.69
88.73
86.02
82.72
80.30
79.82
81.34
83.57
84.22
80.76
71.42
55.81
35.34
12.65
-8.90
-25.94
-35.47
-35.48
-25.26
-5.64
21.07
51.89
82.88
109.51
127.46
133.93
128.83
115.09
97.69
81.65
70.67
65.07
62.33
58.98
52.62
42.80
30.13
14.76
-3.87
-24.82
-45.90
-63.89
-75.89
-80.98
-81.04
-79.66
-79.57
-79.71
-73.90
-55.59
-22.42
21.66
68.22
108.71
138.19
156.13
155.51
133.90
95.39
49.55
5.76
-30.05
-55.12
-69.55
-77.20
-84.09
-95.15
-112.78
-135.08
-155.82
-166.86
-161.64
-133.83
-84.85
-22.70
40.57
93.96
131.56
153.01
160.32
154.82
136.62
105.62
63.08
10.15
-51.38
-119.06
-190.41
-264.09
-338.80
-410.46
-471.53
-494.62
-461.99
-380.32
-277.47
-181.57
-107.67
-57.90
-26.79
-3.05
20.79
46.09
72.45
101.65
139.49
187.94
246.01
301.24
339.24
348.63
324.77
272.17
202.44
130.59
75.45
38.33
16.81
7.34
5.11
4.71
2.71
-3.79
-12.92
-21.51
-28.06
-31.35
-30.88
-27.48
-23.17
-20.04
-19.41
-20.97
-24.16
-29.21
-35.51
-42.09
-48.19
-53.28
-56.92
-58.60
-57.52
-53.68
-48.52
-43.62
-40.44
-40.15
-42.98
-48.38
-55.27
-62.22
-68.25
-73.21
-77.19
-80.61
-84.01
-87.69
-91.68
-95.62
-98.92
-101.08
-101.91
-101.24
-98.92
-94.70
-88.24
-79.27
-67.59
-53.00
-35.25
-14.12
10.35
37.30
64.80
90.08
110.32
123.67
130.09
131.28
129.94
128.60
128.72
130.44
133.07
135.71
137.87
139.39
140.22
139.99
137.93
133.24
125.56
115.36
103.95
92.94
83.60
76.32
70.59
65.46
60.22
54.96
50.67
48.75
50.30
55.36
62.69
69.96
74.45
73.80
66.56
52.47
32.45
8.38
-17.10
-41.12
-60.99
-74.86
-82.13
-83.61
-81.20
-77.19
-73.49
-71.15
-70.23
-70.11
-70.00
-69.38
-68.11
-66.41
-64.69
-63.31
-62.55
-62.60
-63.65
-65.85
-69.24
-73.62
-78.28
-82.10
-83.73
-81.91
-75.84
-65.39
-51.02
-33.55
-13.91
6.97
28.15
48.65
67.37
83.50
96.62
106.75
114.25
119.43
122.74
124.32
124.00
121.47
116.64
109.64
100.71
90.10
77.84
64.20
49.64
34.86
20.60
7.76
-3.08
-12.07
-20.12
-29.00
-39.82
-53.01
-68.19
-84.12
-98.08
-107.08
-109.06
-103.91
-94.20
-82.24
-70.31
-60.37
-53.33
-47.40
-39.57
-27.73
-12.35
2.03
12.69
17.69
15.79
7.22
-3.86
-11.58
-11.33
-2.34
9.45
19.94
25.05
21.32
8.32
-7.22
-14.02
-0.93
38.11
99.24
178.87
272.04
372.28
449.40
472.06
425.35
323.18
220.35
132.09
65.74
27.36
14.46
24.79
52.04
84.70
110.04
117.76
99.91
58.55
0.21
-69.83
-147.48
-228.08
-307.07
-379.42
-441.65
-481.29
-485.27
-451.80
-395.53
-334.83
-280.56
-235.75
-197.50
-161.97
-128.27
-98.74
-71.41
-45.66
-20.28
6.48
35.27
68.07
106.98
152.40
195.61
227.70
240.68
232.18
213.54
190.81
170.30
156.91
152.25
150.91
149.43
144.84
136.62
126.08
113.88
101.30
88.92
76.32
61.96
45.83
28.35
10.93
-4.69
-18.19
-29.23
-38.11
-45.95
-54.41
-64.12
-75.49
-88.38
-102.24
-117.01
-132.03
-146.53
-159.98
-172.27
-183.28
-193.37
-202.82
-211.52
-218.88
-223.41
-223.08
-215.80
-200.08
-175.39
-142.92
-105.56
-67.23
-32.03
-2.89
19.03
34.52
45.47
53.61
59.62
63.13
63.36
59.84
52.75
42.88
31.82
21.03
11.08
1.59
-8.23
-18.59
-29.05
-38.71
-46.65
-51.28
-51.28
-46.59
-38.57
-29.27
-20.39
-13.06
-8.13
-6.26
-6.19
-6.12
-5.39
-5.18
-7.41
-12.84
-20.40
-27.48
-30.81
-24.81
-4.22
33.15
85.33
147.44
214.35
281.46
344.54
385.02
386.05
344.34
274.78
199.05
132.26
79.88
40.45
9.38
-18.30
-42.95
-61.26
-71.08
-72.38
-67.67
-60.18
-53.57
-51.34
-56.56
-68.66
-84.94
-101.70
-115.58
-127.90
-140.31
-153.46
-162.61
-162.62
-147.37
-112.86
-60.22
3.19
65.42
114.72
143.08
148.32
133.83
107.70
79.17
55.44
40.02
32.83
32.08
35.01
38.26
37.69
29.52
11.37
-16.35
-49.51
-80.63
-100.57
-102.04
-82.63
-46.20
-1.05
43.33
79.62
104.52
118.30
123.17
121.11
113.02
99.18
80.74
60.78
43.80
33.88
32.58
37.84
44.58
46.92
40.81
25.69
4.38
-18.54
-38.96
-54.62
-65.16
-71.17
-73.25
-71.84
-67.80
-63.16
-61.16
-65.03
-76.35
-93.98
-114.24
-132.63
-145.80
-152.71
-154.36
-152.65
-149.06
-144.10
-137.60
-129.37
-119.91
-110.48
-102.37
-96.19
-91.38
-86.32
-78.86
-67.06
-49.75
-27.00
-0.43
27.58
54.70
78.80
98.08
111.34
117.97
118.41
113.87
105.33
93.90
80.52
65.22
47.43
27.00
5.10
-15.08
-29.51
-35.42
-30.95
-15.15
11.03
44.26
79.43
110.42
131.89
140.47
134.93
118.63
99.00
83.59
76.55
77.47
77.58
67.99
51.69
32.12
10.89
-7.54
-19.37
-23.90
-23.09
-20.04
-16.62
-12.68
-7.35
-0.52
8.08
20.58
34.64
43.65
42.23
28.88
6.34
-20.67
-46.50
-66.11
-76.69
-78.47
-73.41
-64.04
-52.38
-40.02
-29.09
-21.72
-19.02
-20.04
-22.07
-21.15
-13.51
2.91
27.27
55.33
80.93
94.93
91.41
73.28
51.67
37.62
35.17
40.93
47.77
50.56
46.95
38.67
29.27
21.56
16.00
10.93
3.92
-6.51
-19.56
-33.21
-45.10
-54.85
-64.55
-77.03
-93.00
-109.35
-120.23
-119.97
-106.48
-82.20
-53.61
-28.44
-12.44
-6.92
-8.75
-12.54
-13.60
-10.97
-4.68
3.82
12.85
20.87
26.38
27.89
23.86
13.54
-1.95
-18.76
-31.57
-35.54
-28.65
-13.31
4.94
19.31
24.29
17.57
1.03
-20.88
-42.48
-58.82
-67.80
-69.83
-68.41
-69.64
-79.93
-102.56
-135.79
-171.78
-198.63
-205.44
-184.99
-137.41
-71.06
0.67
64.30
110.14
135.09
142.35
138.31
131.53
128.90
133.57
140.39
143.32
137.20
121.44
108.48
102.12
101.82
104.86
104.06
96.86
83.91
66.76
47.01
26.22
6.25
-8.54
-13.94
-8.60
5.60
24.43
42.99
58.76
66.89
66.25
62.26
61.34
63.69
63.19
53.33
32.20
4.13
-22.85
-40.65
-44.52
-35.53
-19.73
-4.92
3.83
5.29
2.28
-2.22
-5.83
-7.88
-9.86
-14.39
-24.01
-38.87
-57.12
-75.81
-91.92
-102.08
-103.82
-96.32
-75.87
-45.99
-12.81
17.64
41.24
55.48
59.41
52.08
33.25
4.57
-30.14
-63.85
-88.90
-100.30
-97.98
-86.15
-72.12
-62.65
-61.45
-68.67
-80.53
-91.27
-95.34
-90.44
-74.30
-47.93
-14.64
20.90
53.41
78.71
93.97
98.00
90.03
73.59
53.85
36.83
27.74
28.90
38.88
52.90
64.91
69.95
66.67
56.72
43.92
32.23
24.02
19.78
18.33
18.41
19.27
20.90
22.96
24.70
24.89
22.03
15.33
4.83
-8.48
-23.25
-38.07
-52.28
-65.51
-77.19
-86.08
-90.36
-88.52
-80.30
-67.31
-52.66
-40.29
-33.33
-33.08
-37.95
-44.86
-50.41
-52.07
-48.86
-40.96
-29.12
-13.97
4.07
24.30
44.98
63.38
76.69
82.33
80.82
74.68
67.28
61.22
57.22
54.11
49.88
43.24
34.48
25.69
19.64
18.73
23.99
34.12
46.06
55.87
59.89
55.93
44.11
26.35
5.38
-15.46
-34.12
-49.71
-61.92
-70.43
-75.05
-75.60
-72.47
-66.55
-58.77
-49.82
-40.13
-30.69
-22.57
-17.65
-17.33
-21.47
-27.90
-33.21
-34.45
-30.46
-22.38
-12.73
-4.29
1.22
3.45
3.18
1.52
-0.55
-2.30
-3.28
-3.14
-1.82
0.51
3.53
6.78
9.72
11.65
12.06
10.96
8.99
7.07
6.26
7.16
9.85
13.72
17.80
21.32
23.61
24.45
23.58
20.89
16.55
11.01
5.00
-0.59
-4.45
-6.60
-7.16
-7.10
-7.92
-11.06
-17.41
-26.89
-38.34
-49.01
-56.21
-58.32
-55.49
-49.07
-40.92
-32.93
-26.78
-23.61
-22.44
-21.70
-19.99
-16.83
-12.27
-6.48
0.22
7.55
15.60
26.75
43.60
67.25
96.35
127.88
158.44
185.42
207.77
215.77
204.91
179.11
148.34
120.34
96.39
73.66
49.41
23.50
-1.75
-21.47
-32.22
-34.23
-31.12
-27.61
-27.40
-32.44
-42.97
-57.71
-73.09
-84.43
-87.64
-80.07
-60.87
-31.45
4.17
39.85
68.83
86.48
91.07
83.70
67.84
48.25
29.42
13.90
1.92
-7.97
-17.64
-27.07
-36.19
-44.20
-49.63
-51.09
-48.25
-41.88
-33.71
-26.00
-21.38
-22.40
-30.50
-45.45
-65.20
-86.83
-106.26
-118.96
-121.58
-113.49
-97.42
-78.35
-62.05
-53.21
-54.71
-65.00
-77.81
-84.72
-78.87
-57.85
-24.52
13.90
47.79
66.83
65.10
43.44
8.42
-30.81
-65.40
-88.69
-97.26
-82.89
-47.21
-2.26
38.31
68.07
87.31
97.75
99.50
91.59
73.84
47.56
17.83
-7.78
-23.05
-26.38
-21.11
-13.06
-7.27
-6.50
-11.76
-21.59
-32.84
-42.37
-48.27
-50.08
-49.02
-44.99
-38.44
-30.67
-22.65
-14.56
-6.22
2.43
10.80
18.27
25.00
31.81
39.75
49.88
62.39
74.43
82.69
83.74
75.95
61.00
43.27
28.13
19.75
19.48
25.61
34.84
43.82
50.67
55.06
57.21
56.74
52.53
43.28
28.78
10.58
-8.63
-25.83
-38.53
-45.28
-45.47
-39.27
-27.77
-13.32
1.16
12.31
17.73
17.11
12.28
6.29
1.82
0.09
0.79
2.78
4.94
6.67
7.84
8.32
7.79
5.95
2.91
-0.70
-3.83
-5.57
-5.51
-3.86
-1.34
1.24
3.24
4.30
4.42
3.92
3.23
2.88
3.30
4.57
6.32
7.81
8.17
6.79
4.03
0.64
-2.45
-4.49
-5.31
-5.27
-4.98
-4.93
-5.28
-5.95
-6.92
-8.23
-9.97
-11.93
-13.47
-13.58
-11.37
-6.55
0.19
7.34
13.19
16.57
17.26
16.04
14.17
12.68
11.99
11.79
11.45
10.47
8.75
6.60
4.44
2.51
0.76
-0.98
-2.82
-4.66
-6.23
-7.28
-7.82
-8.16
-8.72
-9.82
-11.49
-13.44
-15.25
-16.58
-17.34
-17.73
-18.15
-19.02
-20.62
-22.90
-25.47
-27.68
-28.71
-27.84
-24.54
-18.67
-10.51
-0.83
9.32
18.79
26.57
31.99
34.87
35.45
34.26
31.95
29.17
26.52
24.51
23.50
23.58
24.54
25.81
26.69
26.64
25.38
23.07
20.05
16.63
12.87
8.55
3.27
-3.27
-11.15
-20.20
-30.06
-40.43
-51.09
-61.85
-72.45
-82.45
-91.17
-97.86
-101.93
-103.09
-101.45
-97.39
-91.51
-84.38
-76.58
-68.71
-61.42
-55.42
-51.28
-49.23
-49.12
-50.42
-52.37
-54.22
-55.38
-55.42
-54.10
-51.21
-46.70
-40.64
-33.27
-25.05
-16.59
-8.45
-1.05
5.47
11.20
16.44
21.51
26.59
31.71
36.64
41.00
44.29
46.13
46.55
46.09
45.84
47.16
51.22
58.58
68.91
81.10
93.61
104.87
113.68
119.40
121.90
121.45
118.57
113.79
107.57
100.24
92.08
83.34
74.32
65.30
56.52
48.04
39.78
31.67
23.76
16.28
9.56
3.82
-1.01
-5.32
-9.63
-14.41
-19.83
-25.74
-31.85
-37.86
-43.73
-49.55
-55.46
-61.37
-66.78
-70.82
-72.44
-70.76
-65.45
-56.88
-46.03
-34.23
-22.70
-12.33
-3.50
3.79
9.70
14.31
17.56
19.26
19.29
17.77
15.12
12.05
9.30
7.49
6.92
7.45
8.58
9.65
10.04
9.40
7.70
5.15
1.98
-1.65
-5.79
-10.69
-16.65
-23.91
-32.63
-42.69
-53.73
-64.97
-75.27
-83.29
-87.84
-88.25
-84.57
-77.57
-68.48
-58.65
-49.25
-41.15
-34.86
-30.47
-27.75
-26.09
-24.66
-22.49
-18.82
-13.22
-5.74
3.22
13.06
23.16
33.01
42.11
49.99
56.12
60.08
61.67
61.04
58.69
55.28
51.33
47.04
42.27
36.67
29.98
22.06
12.92
2.72
-8.27
-19.48
-29.94
-38.37
-43.40
-43.99
-39.85
-31.49
-19.99
-6.75
7.03
20.37
32.66
43.51
52.76
60.42
66.64
71.53
75.06
77.01
77.02
74.74
69.89
62.33
52.04
39.25
24.51
8.76
-6.64
-20.26
-31.03
-38.66
-43.69
-47.16
-49.99
-52.61
-54.95
-56.63
-57.38
-57.23
-56.41
-54.92
-52.17
-46.89
-37.83
-24.58
-8.02
9.80
26.38
39.70
48.92
54.40
57.58
59.52
60.31
59.37
56.16
50.77
43.92
36.48
28.92
21.87
15.10
7.81
-0.59
-9.78
-18.56
-25.62
-30.24
-32.50
-31.87
-28.49
-23.07
-16.23
-7.67
3.39
17.45
34.22
52.80
73.77
96.94
120.62
141.68
156.76
163.10
159.60
147.69
121.60
84.11
45.09
14.70
-4.03
-14.87
-23.41
-32.84
-43.12
-52.57
-58.47
-60.58
-61.28
-63.41
-67.59
-72.20
-74.33
-71.43
-62.66
-48.16
-30.67
-14.82
-5.98
-7.10
-18.01
-35.79
-56.35
-75.87
-91.02
-100.39
-104.44
-105.57
-103.91
-99.14
-91.02
-79.80
-66.44
-51.92
-37.28
-23.23
-9.73
3.91
17.92
31.67
43.74
52.49
57.03
57.67
54.02
47.57
40.53
34.55
30.42
28.11
27.11
26.74
26.46
25.94
25.40
25.34
26.21
28.27
31.37
34.79
37.32
37.81
35.67
31.41
26.25
21.53
18.26
16.84
17.02
18.05
18.86
18.33
15.79
11.17
5.19
-0.54
-3.98
-3.38
1.87
10.73
20.51
27.77
29.43
23.93
11.75
-4.91
-23.01
-39.78
-53.38
-63.06
-68.62
-69.80
-66.16
-57.65
-45.33
-31.71
-20.34
-14.54
-16.16
-24.87
-38.28
-53.31
-67.71
-81.09
-94.54
-109.45
-125.99
-142.31
-154.90
-159.27
-151.93
-131.96
-101.43
-64.17
-24.14
15.81
54.08
89.45
121.54
150.21
175.27
197.02
216.83
236.60
256.93
275.41
285.74
281.50
257.97
213.31
148.48
66.98
-26.20
-125.19
-222.96
-311.53
-379.57
-415.49
-411.88
-368.76
-293.30
-197.10
-92.78
13.12
104.24
164.57
188.79
184.46
164.29
139.50
117.64
102.60
94.98
92.16
93.57
97.31
101.56
104.50
105.06
103.39
100.37
96.54
91.01
83.71
74.98
64.56
53.05
41.52
31.59
24.66
21.36
21.23
24.35
31.03
41.27
53.84
65.88
74.16
76.37
72.56
65.19
58.23
54.01
50.73
42.26
21.05
-16.99
-69.15
-126.23
-176.47
-210.49
-225.08
-223.42
-212.16
-197.74
-183.23
-168.42
-152.02
-134.04
-116.51
-102.34
-93.60
-90.29
-90.70
-91.52
-89.35
-82.58
-72.35
-61.98
-55.37
-55.40
-62.81
-76.63
-93.22
-107.83
-117.11
-120.65
-120.44
-118.98
-117.77
-116.96
-116.85
-116.56
-114.28
-108.03
-96.03
-76.39
-47.54
-9.63
40.46
94.72
139.51
165.84
175.41
175.99
174.08
171.52
166.47
156.77
141.73
124.64
110.69
103.37
102.08
103.20
102.77
98.50
90.27
78.71
66.54
55.42
46.55
39.72
34.26
29.53
25.07
20.30
14.00
5.94
-3.41
-13.22
-22.99
-31.67
-37.93
-40.87
-40.86
-39.63
-38.44
-38.12
-38.16
-38.26
-37.24
-33.98
-28.61
-22.84
-19.40
-18.92
-20.66
-23.29
-25.42
-24.70
-18.48
-4.89
16.58
44.47
77.61
113.19
146.65
166.60
163.93
139.55
104.87
77.99
61.56
54.00
52.50
53.19
53.54
53.20
52.82
52.70
52.15
49.49
45.29
40.85
37.40
35.70
36.54
40.11
45.52
50.89
53.77
53.46
49.67
41.76
28.99
11.47
-9.65
-32.65
-55.84
-77.98
-97.01
-110.64
-116.64
-113.11
-99.12
-75.64
-45.95
-14.98
12.09
31.93
43.24
46.47
43.15
35.32
25.26
15.22
7.10
1.82
-1.20
-4.09
-9.64
-19.42
-32.56
-45.64
-54.32
-55.44
-48.58
-36.17
-22.03
-9.14
1.73
11.86
22.89
34.78
45.02
49.65
45.25
30.65
7.61
-19.86
-47.10
-70.35
-88.25
-101.12
-109.92
-115.60
-119.10
-121.44
-123.62
-126.42
-130.18
-135.84
-143.93
-153.72
-163.09
-169.21
-169.31
-161.33
-144.79
-121.47
-96.84
-77.16
-66.07
-63.00
-64.18
-64.72
-60.61
-50.22
-34.80
-19.37
-9.38
-7.44
-13.07
-24.91
-42.42
-65.87
-95.26
-113.67
-108.05
-78.68
-37.89
1.35
32.09
53.33
68.38
82.55
99.11
120.33
144.77
170.17
194.96
217.88
237.26
251.22
258.40
252.20
229.05
189.17
137.95
84.09
35.63
-2.83
-30.42
-48.55
-59.31
-64.45
-65.69
-64.35
-61.83
-60.18
-61.54
-66.94
-75.60
-84.99
-91.44
-91.88
-84.15
-67.31
-41.95
-9.85
26.58
64.91
102.81
138.47
170.00
195.76
214.56
225.76
229.36
226.05
217.35
205.59
193.94
185.29
181.01
180.13
179.35
174.33
161.87
141.42
115.16
86.43
57.70
29.47
0.75
-29.38
-60.36
-89.89
-115.17
-134.52
-148.27
-158.26
-166.14
-171.72
-172.34
-163.97
-143.47
-110.96
-70.81
-30.58
1.43
19.31
21.43
10.56
-7.90
-28.28
-46.64
-61.20
-71.57
-77.88
-80.34
-79.64
-77.31
-75.88
-78.08
-85.78
-99.04
-115.71
-131.75
-142.17
-142.47
-130.18
-106.26
-75.36
-44.62
-21.15
-9.14
-8.24
-13.80
-19.23
-19.16
-11.94
0.19
12.84
22.04
26.13
25.93
23.57
21.03
19.20
18.03
17.31
17.12
17.72
18.98
19.87
19.03
15.60
10.02
3.97
-0.35
-1.29
1.45
6.68
11.94
15.00
14.69
11.08
4.87
-3.09
-11.95
-20.89
-28.96
-35.84
-40.76
-42.50
-40.07
-33.84
-25.52
-17.48
-11.61
-8.55
-8.67
-10.81
-12.35
-10.65
-4.79
4.16
13.83
21.61
25.40
22.33
11.23
-6.49
-27.52
-48.43
-66.29
-78.83
-84.49
-72.98
-41.81
0.30
39.67
67.82
83.72
90.62
92.63
93.05
93.59
92.66
88.23
79.38
66.62
50.98
33.96
17.32
2.93
-7.98
-16.56
-24.18
-31.12
-36.23
-38.73
-36.92
-30.75
-22.10
-14.61
-13.12
-20.45
-36.25
-57.24
-79.14
-98.26
-112.62
-121.50
-124.68
-122.04
-112.51
-95.33
-71.23
-43.14
-15.31
8.27
25.40
36.21
39.34
35.19
24.56
8.28
-12.45
-35.09
-55.01
-66.87
-66.62
-53.41
-29.69
-0.92
26.62
48.07
61.59
69.67
76.39
85.07
96.70
110.27
123.43
133.67
139.13
138.87
134.60
128.08
120.18
110.66
99.46
87.41
76.55
69.61
69.10
78.37
97.74
123.67
150.18
172.38
189.08
202.89
217.86
220.88
202.19
159.17
98.55
31.46
-31.47
-81.90
-114.98
-130.24
-131.31
-121.61
-105.15
-85.67
-66.32
-49.15
-35.13
-24.98
-19.69
-20.20
-24.65
-30.26
-34.32
-34.69
-31.87
-27.08
-22.24
-19.35
-19.75
-22.55
-26.11
-29.18
-31.31
-32.68
-33.39
-33.29
-31.98
-29.11
-24.09
-17.18
-9.70
-3.60
-0.85
-3.02
-11.20
-24.94
-42.56
-61.15
-77.49
-88.92
-93.63
-91.28
-83.31
-72.67
-62.51
-54.98
-50.61
-48.37
-46.53
-43.03
-36.56
-26.94
-15.03
-1.58
13.10
28.88
46.07
61.30
71.30
76.45
80.26
85.16
90.16
90.64
80.28
54.77
14.70
-33.32
-79.53
-115.39
-137.56
-147.49
-149.08
-145.96
-139.66
-129.85
-115.54
-98.84
-80.60
-63.76
-50.76
-41.73
-35.03
-28.25
-19.49
-7.94
5.83
20.52
34.07
45.10
53.63
60.09
64.92
68.14
69.55
69.04
67.20
65.01
61.35
56.95
52.58
48.53
44.58
40.39
35.62
30.08
23.32
14.92
5.19
-5.27
-15.41
-23.94
-29.73
-32.31
-31.96
-29.77
-27.19
-25.27
-24.85
-26.33
-29.52
-33.70
-37.68
-40.01
-39.45
-35.28
-27.38
-16.55
-4.15
8.36
19.83
29.61
37.45
43.34
47.25
49.33
49.67
48.49
46.10
42.80
38.93
34.80
30.73
27.04
24.10
22.11
21.10
20.96
21.54
22.63
23.77
24.08
22.29
17.06
7.64
-5.64
-21.41
-37.77
-53.04
-66.23
-77.03
-85.37
-91.06
-93.60
-92.57
-87.92
-80.18
-70.22
-58.92
-46.78
-33.87
-20.08
-5.33
10.21
26.15
41.79
56.21
68.27
76.87
81.29
81.58
78.65
74.05
69.43
65.94
63.78
61.98
58.77
52.13
40.57
23.78
2.93
-19.70
-41.37
-59.76
-73.72
-83.45
-90.25
-95.91
-101.93
-109.05
-117.11
-125.17
-131.91
-135.96
-136.14
-131.43
-121.13
-104.71
-81.93
-52.93
-18.36
20.41
61.27
101.48
138.03
168.22
190.37
204.29
211.39
214.24
215.66
217.77
221.38
225.93
230.06
232.36
231.99
228.79
223.04
215.07
204.98
192.50
176.97
157.55
133.43
104.16
69.90
31.82
-7.88
-46.52
-81.67
-112.09
-138.02
-160.66
-181.06
-199.01
-212.75
-219.63
-217.76
-207.63
-192.96
-179.92
-174.48
-179.55
-193.21
-208.71
-216.90
-209.89
-183.86
-140.59
-86.52
-29.81
22.18
64.34
94.11
111.40
117.82
116.97
113.19
110.46
112.02
118.91
129.06
137.99
140.95
134.37
118.13
94.01
64.06
30.96
-2.93
-36.25
-68.33
-98.08
-124.52
-144.73
-156.44
-158.90
-150.91
-131.14
-99.42
-57.19
-6.95
47.21
103.08
158.40
199.82
214.65
199.26
161.85
115.90
80.54
55.95
40.05
30.98
27.41
26.67
28.96
33.82
39.32
43.11
42.52
38.13
31.34
23.06
14.58
6.88
-0.78
-10.68
-25.21
-46.60
-73.91
-105.03
-137.69
-168.89
-195.20
-213.91
-223.38
-222.80
-212.79
-194.07
-168.41
-138.55
-106.93
-74.99
-43.59
-13.33
15.01
40.03
60.52
75.40
84.15
87.38
86.71
83.95
80.37
76.29
71.15
64.23
55.07
43.70
30.55
16.14
0.69
-15.88
-33.77
-52.95
-72.97
-92.99
-112.08
-129.46
-144.75
-157.76
-168.27
-175.72
-179.31
-178.26
-172.33
-162.13
-149.23
-135.69
-123.47
-113.72
-106.54
-101.11
-96.20
-90.63
-83.58
-74.57
-63.33
-49.73
-33.73
-15.55
4.54
26.17
49.09
73.03
97.64
122.25
145.98
167.97
187.66
204.87
219.48
230.93
237.95
238.87
232.46
218.91
200.24
179.82
161.13
146.35
135.78
128.18
121.95
116.11
110.69
106.20
102.82
100.01
96.66
91.80
85.02
76.49
66.55
55.27
42.40
27.72
11.46
-5.62
-22.44
-38.20
-52.63
-66.00
-78.81
-91.54
-104.46
-117.76
-131.55
-145.76
-160.02
-173.61
-185.66
-195.51
-203.00
-208.56
-212.73
-215.52
-215.88
-211.69
-200.37
-180.07
-150.57
-113.69
-72.72
-31.27
7.92
43.54
75.52
104.33
130.31
153.39
173.31
189.90
203.26
213.63
221.18
225.87
227.61
226.40
222.52
216.45
208.62
199.30
188.51
176.25
162.57
147.71
131.99
115.73
99.21
82.76
66.81
51.89
38.49
26.82
16.68
7.54
-1.21
-9.85
-18.10
-25.14
-29.99
-31.96
-31.04
-27.94
-23.75
-19.49
-15.69
-12.41
-9.40
-6.58
-4.43
-3.90
-6.06
-11.44
-19.59
-29.11
-38.16
-45.24
-49.85
-52.69
-55.28
-59.27
-65.46
-73.50
-82.01
-89.32
-94.20
-96.34
-96.39
-95.46
-94.49
-93.41
-91.62
-88.72
-85.32
-83.04
-83.76
-88.59
-97.09
-107.38
-116.23
-120.92
-120.64
-116.78
-111.87
-107.91
-105.16
-102.21
-96.82
-85.95
-67.97
-43.75
-16.69
8.74
29.27
43.93
53.85
61.18
69.35
80.83
96.19
114.34
134.03
155.19
178.58
204.23
220.62
215.98
184.76
133.03
74.85
24.37
-9.24
-23.32
-21.28
-10.50
2.06
11.51
15.53
13.79
7.30
-2.27
-13.66
-26.63
-41.65
-57.56
-71.27
-79.10
-78.29
-68.29
-51.04
-30.54
-11.18
4.27
15.69
25.32
35.12
44.03
47.83
41.89
24.47
-1.00
-26.81
-44.48
-48.74
-39.37
-21.41
-2.44
11.05
15.76
12.17
3.24
-7.65
-17.98
-26.53
-33.52
-39.82
-46.19
-53.08
-60.01
-65.65
-68.46
-66.98
-60.44
-49.78
-37.40
-23.67
-10.47
0.51
7.78
10.04
7.28
1.43
-4.30
-6.61
-3.53
3.76
11.38
13.64
6.63
-9.38
-27.03
-35.56
-27.49
-2.62
32.60
68.80
101.41
128.03
147.75
160.08
163.73
157.00
137.38
106.40
70.65
38.51
16.62
7.28
7.53
10.20
7.35
-3.35
-25.17
-53.09
-81.09
-104.73
-121.95
-132.87
-138.92
-141.69
-141.91
-139.51
-133.13
-122.10
-106.90
-88.84
-69.73
-51.34
-34.87
-20.75
-8.91
1.53
10.84
18.74
24.88
29.16
31.97
34.05
36.22
38.82
41.91
44.58
45.33
42.63
35.40
23.63
8.61
-7.09
-20.26
-27.93
-28.80
-23.72
-15.35
-6.94
-0.98
1.69
1.58
-0.32
-3.53
-8.51
-16.12
-26.61
-38.96
-50.66
-58.74
-60.79
-55.86
-44.69
-29.31
-12.41
3.34
15.66
22.90
24.05
18.78
7.78
-6.83
-21.15
-30.04
-28.36
-12.94
15.49
51.80
87.95
115.62
129.11
127.00
112.00
89.54
65.79
46.08
34.11
31.29
36.75
47.43
59.19
67.76
70.24
65.72
54.86
39.03
19.30
-3.80
-29.77
-57.10
-82.88
-103.00
-113.23
-110.48
-93.71
-64.73
-27.99
10.32
43.88
67.88
80.42
82.78
78.58
72.18
67.09
65.28
67.00
71.49
77.73
84.93
92.57
100.15
107.03
112.39
115.42
115.69
113.28
108.81
103.10
96.73
89.62
80.83
68.82
51.97
29.24
0.85
-31.54
-65.05
-96.28
-122.33
-141.62
-154.31
-162.06
-167.12
-171.27
-175.01
-177.56
-177.42
-173.37
-165.22
-154.02
-141.55
-129.47
-118.59
-108.67
-98.73
-87.72
-75.12
-61.30
-47.30
-34.51
-23.94
-15.95
-10.22
-6.03
-2.70
0.10
2.29
3.43
3.02
0.87
-2.87
-7.84
-13.62
-19.76
-25.82
-31.44
-36.46
-41.07
-45.54
-50.33
-56.22
-64.08
-74.46
-87.14
-101.08
-114.53
-125.54
-131.95
-132.23
-126.20
-115.06
-100.79
-85.33
-70.13
-55.82
-42.41
-28.70
-13.16
5.31
27.11
52.25
80.56
111.49
144.28
173.76
194.12
202.56
200.01
189.28
173.38
154.88
135.95
118.46
103.83
93.52
88.10
86.01
84.40
80.49
73.21
63.69
54.92
48.49
45.17
44.22
43.11
39.43
32.42
23.52
15.19
9.08
5.01
1.30
-4.13
-13.18
-25.68
-39.53
-50.22
-55.02
-54.34
-51.06
-50.85
-55.53
-64.27
-73.50
-78.63
-76.04
-62.32
-38.40
-7.71
24.78
53.80
70.90
71.55
57.76
34.46
10.57
-4.04
-1.67
19.62
55.41
95.32
123.76
128.00
106.77
70.49
33.19
5.87
-6.98
-6.29
1.47
10.36
15.77
14.22
3.73
-16.12
-43.52
-75.21
-106.83
-131.01
-142.24
-138.68
-122.55
-98.70
-72.82
-46.45
-22.71
-3.80
8.91
14.08
11.01
0.43
-15.12
-31.12
-43.45
-50.39
-52.25
-51.33
-51.18
-52.79
-56.56
-61.19
-64.06
-62.18
-53.77
-38.65
-18.72
2.39
20.89
33.87
40.46
41.82
40.42
38.95
39.92
45.06
54.99
68.77
83.77
96.57
104.43
106.66
104.89
102.50
102.84
107.31
114.47
120.43
120.85
113.72
100.16
83.54
67.23
52.86
39.95
26.36
9.57
-11.98
-38.24
-64.75
-83.70
-88.35
-77.52
-56.07
-32.36
-14.17
-6.13
-6.17
-9.82
-13.20
-14.79
-14.97
-14.39
-13.41
-9.59
-2.45
6.64
15.45
22.40
25.39
22.26
12.86
-2.38
-22.29
-45.29
-67.65
-84.20
-90.47
-84.77
-69.49
-50.29
-35.55
-29.53
-35.08
-48.96
-62.87
-69.28
-65.77
-58.51
-51.42
-47.13
-45.70
-45.96
-45.86
-42.56
-35.83
-26.55
-16.03
-3.53
9.19
19.67
25.86
28.01
27.48
24.92
20.57
14.89
9.92
8.14
12.22
22.53
37.51
54.34
69.70
82.03
91.64
100.75
111.86
126.73
144.30
161.59
173.81
175.86
164.19
137.55
98.89
51.78
6.02
-27.88
-42.03
-35.91
-16.81
2.56
9.00
-7.75
-45.84
-89.91
-126.39
-149.99
-164.39
-177.39
-190.11
-203.30
-214.36
-217.94
-209.09
-187.11
-147.71
-95.41
-40.58
6.61
41.12
64.15
79.13
87.84
89.24
82.31
67.23
47.62
29.45
17.73
15.14
21.47
34.14
49.26
63.22
72.69
76.37
75.18
71.07
66.39
63.38
62.21
62.11
61.98
60.43
57.01
52.17
46.60
40.94
35.63
30.87
27.05
24.75
24.28
25.99
30.16
36.67
45.00
54.33
63.74
72.63
80.61
87.33
92.56
96.57
99.70
102.31
104.69
106.88
108.50
108.54
105.39
97.42
83.81
65.09
43.21
21.15
1.99
-11.92
-19.71
-22.40
-22.06
-21.15
-21.99
-26.39
-35.27
-48.49
-64.83
-82.35
-99.65
-115.10
-127.13
-134.78
-138.25
-138.65
-137.41
-135.81
-134.69
-135.93
-139.79
-144.42
-147.15
-146.29
-142.07
-136.30
-131.55
-130.02
-134.99
-146.22
-159.33
-168.57
-170.10
-163.46
-151.13
-137.00
-125.08
-121.45
-128.18
-141.90
-156.34
-165.66
-166.26
-157.28
-140.78
-100.26
-37.14
30.52
82.52
111.51
122.84
125.69
126.42
126.83
125.94
119.52
107.10
92.70
80.51
71.48
63.53
54.54
44.84
37.12
31.71
26.51
22.35
19.61
18.77
21.64
31.58
51.27
80.10
111.42
136.84
150.56
151.04
141.05
125.74
109.78
94.73
78.28
54.90
20.01
-26.67
-79.57
-128.48
-161.83
-170.69
-151.65
-107.73
-47.31
19.01
81.23
131.45
164.51
178.25
173.31
152.60
120.59
81.86
40.26
-1.63
-42.52
-82.20
-121.51
-161.87
-203.94
-246.37
-285.26
-315.36
-332.56
-336.41
-330.62
-321.16
-312.69
-305.36
-294.94
-275.65
-244.11
-201.35
-152.10
-101.80
-53.86
-8.34
37.66
87.20
141.02
197.02
252.00
303.73
352.14
398.45
443.58
487.58
527.42
556.42
565.74
548.51
503.48
435.76
354.52
269.50
190.13
122.58
68.37
24.99
-11.23
-43.02
-71.84
-99.05
-125.54
-147.19
-156.27
-144.73
-108.21
-46.75
35.81
132.80
235.10
312.54
335.40
292.85
202.47
95.09
-3.93
-81.37
-134.03
-166.30
-186.42
-199.01
-204.24
-199.58
-183.10
-154.58
-115.96
-71.09
-26.26
11.47
38.97
56.47
65.99
68.61
66.36
57.65
42.92
24.22
4.72
-10.50
-17.57
-15.85
-8.98
-2.52
-1.01
-5.08
-12.24
-18.50
-19.52
-13.63
-2.28
10.06
17.76
15.75
1.23
-26.70
-67.78
-115.90
-164.14
-205.07
-232.70
-244.23
-240.98
-227.44
-209.77
-193.24
-180.23
-170.73
-163.36
-157.67
-155.22
-158.76
-169.40
-184.97
-199.26
-203.49
-190.13
-155.97
-104.12
-43.24
15.25
61.26
88.32
95.16
86.32
70.77
59.57
62.32
84.10
123.44
173.06
220.61
252.24
257.69
233.64
184.61
121.07
56.44
3.63
-26.71
-30.05
-9.24
27.07
67.23
100.44
119.91
125.03
114.45
95.29
78.32
68.69
63.31
56.59
46.88
37.36
32.83
35.48
44.12
53.76
58.54
56.70
49.29
39.97
32.37
28.18
26.43
25.32
22.23
15.01
3.36
-11.12
-26.02
-40.21
-52.98
-65.54
-79.20
-94.81
-111.67
-127.35
-138.57
-142.52
-138.40
-127.94
-115.06
-104.10
-98.67
-100.29
-108.59
-121.95
-138.23
-155.60
-172.97
-190.20
-207.32
-223.36
-235.12
-238.58
-230.21
-208.05
-172.22
-124.92
-69.99
-12.15
44.40
97.67
145.70
186.30
217.79
240.35
255.96
267.27
275.87
282.01
286.16
286.96
282.39
271.47
255.87
239.35
226.07
218.57
204.23
177.12
140.15
102.26
70.74
47.88
31.55
20.30
7.39
-11.17
-34.60
-60.00
-84.03
-104.59
-119.82
-128.73
-131.30
-128.24
-119.45
-104.35
-83.76
-60.27
-37.87
-20.57
-11.16
-10.41
-17.65
-30.73
-47.83
-67.69
-89.03
-110.32
-129.75
-145.47
-155.58
-158.74
-145.83
-113.91
-69.49
-24.65
10.95
33.68
44.70
47.87
47.77
48.72
52.33
58.75
67.58
77.84
87.92
95.66
99.26
98.09
93.00
84.55
73.69
61.59
49.17
36.74
24.66
13.84
5.68
1.42
0.92
3.09
6.60
10.30
13.44
15.58
16.52
16.16
14.63
12.38
10.83
12.26
18.66
30.40
45.74
61.33
73.58
80.26
81.07
77.38
70.94
62.65
52.13
38.22
20.20
-1.29
-24.06
-45.16
-61.94
-73.01
-78.51
-79.93
-79.19
-77.97
-77.19
-76.90
-76.64
-75.95
-74.79
-73.75
-73.70
-75.42
-79.09
-84.17
-89.65
-94.63
-98.63
-101.78
-104.54
-107.23
-109.64
-110.96
-110.02
-105.71
-97.45
-85.40
-70.44
-53.90
-37.15
-21.42
-7.68
3.40
11.50
16.72
19.70
21.61
23.87
27.68
33.44
40.47
47.17
51.73
52.93
50.73
46.20
40.99
36.49
33.32
31.29
29.66
27.88
25.63
22.76
19.04
13.98
6.98
-2.46
-14.24
-27.49
-40.45
-51.04
-57.53
-59.20
-56.73
-52.01
-47.62
-45.82
-47.73
-52.62
-58.37
-62.35
-62.32
-57.03
-46.57
-32.53
-17.71
-5.80
0.20
-1.73
-11.85
-28.20
-46.73
-62.63
-72.53
-75.39
-72.86
-66.45
-57.49
-46.96
-35.42
-23.30
-10.96
0.52
10.65
19.00
27.63
37.72
47.91
54.80
55.43
49.87
41.00
34.95
37.48
54.71
88.48
135.03
187.05
237.02
280.11
313.62
338.51
337.75
302.34
238.28
164.00
96.73
43.73
10.52
-10.70
-25.42
-37.17
-45.30
-48.65
-49.81
-50.46
-51.53
-52.88
-55.23
-58.43
-62.92
-66.66
-67.12
-62.26
-51.47
-36.47
-20.67
-8.66
-2.59
-2.32
-4.22
-4.27
0.28
9.53
20.62
29.25
31.45
26.06
14.11
-1.78
-18.65
-32.58
-39.31
-35.62
-20.24
5.96
40.94
81.21
121.33
147.23
144.10
106.31
42.64
-29.44
-93.31
-138.27
-161.30
-166.91
-163.64
-158.23
-152.81
-145.56
-133.33
-114.59
-92.10
-68.49
-47.43
-31.73
-21.23
-13.64
-6.58
0.92
8.00
13.10
15.14
13.64
9.35
4.80
3.19
5.27
10.53
16.90
21.90
23.88
22.52
19.39
17.79
21.43
32.54
51.17
74.69
98.73
118.65
130.66
133.37
127.60
115.64
100.03
83.31
67.27
52.66
39.15
25.53
11.30
-3.33
-17.08
-28.12
-34.25
-34.36
-29.36
-22.27
-17.07
-15.93
-19.46
-27.25
-39.36
-55.88
-75.76
-95.07
-107.83
-113.47
-110.72
-99.10
-77.65
-49.71
-20.40
5.55
25.58
39.74
49.61
58.52
69.08
81.73
94.38
104.20
109.10
108.30
101.84
89.31
71.12
48.23
21.82
-7.03
-36.71
-65.58
-92.62
-117.85
-142.50
-165.99
-185.20
-196.15
-196.08
-184.22
-162.11
-132.81
-94.56
-51.59
-11.37
20.42
42.22
55.29
61.45
62.03
58.07
50.53
41.19
30.83
21.82
16.50
15.98
19.92
26.71
34.24
40.66
44.43
43.74
39.51
33.52
27.28
21.59
16.81
13.27
11.48
11.69
14.25
19.88
28.30
38.17
47.84
56.20
63.08
68.94
73.93
77.61
79.21
77.24
70.46
58.97
44.53
30.05
18.34
10.73
5.34
0.38
-6.06
-15.38
-27.70
-42.16
-57.41
-72.03
-84.65
-93.89
-98.45
-97.88
-92.87
-85.02
-76.44
-69.06
-63.90
-61.52
-60.29
-58.33
-54.34
-48.00
-39.74
-30.47
-21.11
-11.97
-2.47
8.49
21.73
37.09
51.70
62.51
67.89
68.53
66.82
65.24
64.95
65.14
63.97
60.22
54.40
48.31
43.67
40.50
36.87
29.81
17.07
-0.92
-20.52
-35.81
-41.30
-34.36
-16.78
5.80
26.77
40.26
43.48
37.87
28.40
21.06
19.88
24.47
31.00
33.43
26.83
10.46
-11.92
-34.11
-50.92
-60.57
-64.89
-67.69
-70.38
-72.07
-70.40
-64.02
-54.13
-44.18
-37.52
-35.09
-34.60
-31.73
-23.25
-9.10
7.35
21.19
28.87
30.08
27.25
23.64
21.35
19.91
17.22
11.17
1.23
-11.20
-22.48
-28.98
-29.48
-25.56
-21.07
-19.88
-23.49
-30.04
-34.90
-32.95
-20.85
1.11
29.33
57.68
79.89
92.07
93.83
87.95
78.54
70.07
62.85
55.79
47.17
35.95
22.78
9.47
-2.09
-11.34
-18.25
-22.80
-23.92
-19.89
-9.80
5.17
20.70
30.44
28.11
11.45
-16.71
-49.35
-78.25
-97.42
-104.41
-100.71
-86.18
-64.36
-39.42
-14.93
7.02
26.35
41.76
53.72
64.14
74.06
81.62
83.32
75.74
57.45
30.33
-1.67
-32.86
-58.02
-74.25
-81.89
-83.11
-80.61
-78.12
-75.01
-70.51
-63.56
-53.27
-39.66
-23.86
-7.82
6.07
15.65
20.04
18.78
13.33
7.52
5.26
8.23
15.76
25.60
35.08
42.14
44.95
42.56
35.17
22.51
5.65
-13.71
-33.08
-49.05
-55.86
-49.77
-31.86
-7.65
15.25
31.07
35.20
26.03
5.20
-22.04
-49.40
-72.30
-87.82
-91.27
-78.24
-48.66
-8.58
32.31
64.43
85.45
96.91
102.42
106.75
113.81
125.43
138.10
149.03
150.32
137.50
111.53
79.01
47.53
20.85
-2.16
-24.75
-48.14
-70.79
-86.66
-89.06
-74.08
-42.53
-0.23
44.02
80.05
97.60
93.28
71.69
40.36
5.32
-29.90
-62.91
-90.35
-107.15
-107.67
-88.84
-52.97
-8.61
31.45
54.86
54.79
32.13
-5.43
-46.73
-82.17
-108.77
-126.43
-137.15
-142.29
-141.31
-133.02
-117.82
-99.31
-84.09
-79.38
-88.43
-109.97
-139.25
-170.57
-199.32
-222.39
-236.77
-239.10
-226.29
-195.26
-145.92
-81.91
-8.92
67.90
142.47
211.61
274.94
324.13
352.43
358.30
347.04
327.17
304.49
279.83
250.38
212.69
166.13
116.12
71.36
39.35
22.66
17.89
18.89
20.55
20.28
17.21
11.23
1.44
-13.35
-31.09
-48.35
-58.90
-57.13
-42.37
-20.22
0.48
11.70
8.69
-5.76
-24.57
-40.23
-48.09
-47.55
-41.61
-34.06
-28.29
-26.89
-30.72
-39.19
-49.87
-59.18
-64.00
-63.68
-59.86
-55.11
-51.00
-46.88
-40.88
-31.53
-19.32
-7.22
0.97
2.44
-3.50
-15.33
-29.84
-43.13
-51.60
-52.12
-43.25
-25.87
-3.28
19.54
38.12
49.41
53.31
52.63
50.78
49.66
49.03
47.28
42.69
34.68
24.00
12.55
2.89
-2.46
-1.86
4.23
12.47
17.27
13.94
0.69
-19.60
-40.44
-54.91
-59.08
-54.14
-44.36
-36.09
-32.75
-33.51
-34.49
-31.69
-23.08
-9.05
7.85
24.06
35.99
41.06
38.34
29.69
19.22
12.19
13.14
23.73
41.71
61.19
74.91
76.33
62.86
37.11
6.32
-20.12
-34.29
-33.25
-20.36
-3.85
7.36
7.78
-2.23
-17.62
-32.40
-43.12
-50.50
-57.49
-66.02
-74.77
-79.61
-76.44
-64.02
-45.69
-26.81
-13.08
-7.44
-8.94
-13.75
-17.45
-17.05
-12.13
-4.46
3.33
9.12
12.33
13.85
15.43
18.61
23.93
30.74
37.46
42.32
43.89
41.70
36.39
29.44
22.63
17.20
13.36
10.26
6.55
1.15
-5.89
-13.35
-19.37
-22.38
-22.02
-19.03
-14.79
-10.31
-5.77
-0.53
5.86
12.76
18.01
18.64
12.64
0.25
-15.74
-31.03
-41.79
-46.38
-45.79
-42.62
-39.31
-36.44
-32.72
-26.05
-14.95
0.77
19.93
40.87
62.75
83.68
101.72
114.36
118.63
112.02
94.00
66.98
36.20
7.86
-13.45
-25.96
-31.07
-31.80
-31.07
-30.32
-29.48
-27.88
-25.42
-22.96
-21.74
-22.57
-24.96
-26.87
-25.41
-18.41
-5.71
10.42
26.30
38.32
44.59
45.61
43.59
41.23
39.60
39.30
39.73
40.25
40.55
40.29
38.30
32.37
20.09
0.60
-24.16
-49.60
-69.76
-79.85
-78.45
-68.32
-55.65
-47.42
-48.47
-59.65
-77.38
-95.18
-106.56
-107.67
-98.48
-82.07
-63.14
-43.65
-23.69
-1.79
23.17
49.89
74.09
89.75
91.75
78.65
53.68
23.42
-4.48
-24.28
-33.67
-33.66
-26.91
-16.11
-2.98
11.50
25.60
37.00
43.47
43.92
39.14
31.66
24.38
19.26
16.48
14.35
10.54
3.36
-7.34
-19.76
-30.56
-35.93
-33.02
-21.22
-2.70
18.35
37.20
50.40
56.84
57.58
54.76
50.24
44.99
39.18
33.10
27.37
22.72
19.42
17.18
14.78
11.57
7.88
4.72
2.86
1.80
-0.30
-5.46
-14.30
-25.07
-34.03
-37.48
-33.67
-23.61
-10.35
2.64
12.84
19.16
21.04
17.89
9.11
-5.20
-23.46
-42.50
-58.34
-67.22
-66.38
-54.53
-32.16
-2.16
30.14
57.86
74.77
77.44
66.89
48.12
27.36
9.07
-5.93
-19.50
-34.06
-50.11
-65.52
-75.75
-76.09
-64.02
-40.44
-10.16
20.13
44.05
57.27
58.22
48.91
33.57
16.35
0.07
-14.40
-25.73
-32.06
-31.75
-25.04
-13.92
-2.30
4.42
1.91
-12.24
-36.63
-64.32
-85.76
-96.32
-98.08
-95.64
-95.40
-94.48
-89.17
-77.11
-58.70
-34.50
-9.76
10.79
25.39
35.29
44.12
54.79
68.52
84.03
97.68
104.64
102.86
93.21
77.71
58.69
37.74
16.63
-2.71
-18.45
-29.47
-33.38
-28.07
-13.28
9.39
37.11
67.10
97.01
124.73
140.78
139.52
125.07
107.51
92.91
79.17
59.41
27.28
-18.54
-72.74
-123.58
-158.60
-170.48
-159.51
-131.95
-96.47
-61.12
-31.64
-11.28
-0.50
1.65
-3.35
-13.15
-23.97
-31.42
-32.33
-26.10
-14.99
-2.50
7.59
12.30
10.20
2.33
-8.27
-17.86
-23.69
-24.56
-20.96
-14.93
-9.25
-5.97
-5.39
-5.98
-5.45
-1.97
4.96
14.52
24.78
33.34
38.22
38.64
35.30
30.30
26.18
25.07
27.93
33.79
40.02
43.57
42.34
36.21
27.16
17.86
10.85
7.71
8.38
11.66
16.33
21.18
25.90
31.03
36.67
42.76
49.19
55.28
59.77
61.18
58.29
50.13
36.32
15.96
-11.80
-43.04
-70.32
-86.61
-88.65
-77.44
-60.37
-41.38
-24.42
-12.67
-7.57
-9.19
-16.05
-26.11
-36.84
-45.92
-51.21
-52.11
-48.86
-42.32
-34.25
-27.11
-23.36
-24.51
-30.81
-40.74
-52.39
-63.43
-71.57
-75.35
-74.46
-69.56
-61.74
-52.09
-41.11
-29.27
-16.88
-4.19
8.19
19.37
28.41
34.84
38.73
40.80
41.76
42.18
42.34
42.17
41.40
39.74
37.10
33.56
29.42
25.01
20.70
16.82
13.57
10.93
8.72
6.69
4.58
2.28
-0.36
-3.41
-6.96
-11.07
-15.84
-21.32
-27.48
-34.12
-40.85
-47.17
-52.34
-55.60
-56.29
-54.19
-49.59
-43.01
-34.95
-25.68
-15.31
-3.71
9.22
23.37
38.09
52.54
66.32
79.57
92.74
105.58
117.32
126.64
132.30
133.31
129.75
123.14
115.77
109.31
103.40
96.14
85.11
68.40
44.87
14.72
-20.07
-56.24
-90.02
-118.53
-139.57
-151.77
-152.32
-140.54
-120.37
-98.94
-82.61
-70.34
-58.75
-44.16
-24.42
0.79
29.26
57.04
80.17
96.14
104.62
106.64
104.52
100.80
97.27
94.07
90.27
85.00
78.22
70.62
62.76
55.23
48.58
43.35
39.66
37.27
35.85
34.98
34.18
32.74
30.17
26.25
20.75
13.14
2.81
-10.29
-25.28
-40.46
-54.01
-64.55
-71.59
-75.50
-77.23
-77.56
-76.72
-74.51
-70.78
-65.79
-60.18
-54.67
-49.76
-45.70
-42.41
-39.67
-37.39
-35.67
-34.64
-34.27
-34.52
-35.43
-37.54
-41.22
-46.32
-52.16
-57.82
-62.43
-65.45
-66.96
-67.68
-69.06
-71.82
-75.48
-78.83
-80.72
-80.67
-78.95
-76.57
-74.84
-75.30
-77.96
-81.00
-81.52
-76.63
-64.38
-44.04
-16.25
20.16
60.52
96.21
119.42
127.31
122.02
108.21
91.55
77.46
70.02
70.54
78.19
90.59
104.28
115.70
121.88
121.20
113.20
98.48
77.87
53.23
27.51
4.14
-13.43
-22.78
-22.12
-11.37
7.20
28.88
48.22
60.85
63.54
56.59
42.44
24.21
4.37
-15.32
-33.53
-48.67
-58.96
-63.53
-62.85
-58.93
-54.26
-50.71
-48.91
-48.42
-48.36
-48.00
-47.20
-45.96
-44.39
-42.52
-40.31
-37.72
-34.73
-31.79
-28.47
-24.46
-19.41
-13.25
-6.36
0.20
5.02
6.89
5.61
2.37
-0.71
-1.20
2.40
10.06
19.96
29.18
34.75
34.59
28.16
16.16
0.32
-17.05
-33.28
-45.90
-53.12
-54.23
-49.83
-41.62
-31.90
-22.84
-15.94
-11.36
-8.21
-4.81
0.70
9.66
22.46
38.25
55.34
69.98
79.28
81.86
78.23
70.54
61.47
53.30
47.14
43.02
40.21
38.13
36.28
34.18
31.34
27.45
22.74
17.96
14.12
11.63
9.64
5.57
-4.08
-22.00
-48.47
-80.47
-112.56
-138.65
-154.39
-158.46
-152.52
-140.28
-125.70
-111.68
-99.62
-89.91
-82.62
-77.91
-75.85
-75.85
-76.14
-73.94
-66.48
-52.33
-32.43
-9.97
10.85
26.83
37.22
43.96
50.49
60.02
74.12
92.11
111.77
130.21
144.65
152.70
152.38
142.47
123.02
96.14
66.38
39.97
23.16
20.12
31.42
53.77
81.29
107.60
128.00
140.74
147.15
150.75
155.58
164.57
178.45
195.49
212.13
223.98
226.73
216.68
191.24
149.54
93.45
28.15
-38.25
-96.75
-140.43
-167.02
-179.57
-184.54
-188.41
-194.79
-203.65
-212.79
-220.37
-226.41
-232.54
-240.27
-249.22
-256.71
-258.99
-253.17
-238.82
-217.99
-194.17
-170.54
-148.73
-128.54
-108.65
-87.74
-65.34
-42.17
-19.70
0.63
18.14
33.07
46.27
58.41
69.54
79.06
86.16
90.31
91.49
90.02
86.25
80.59
73.82
67.53
63.85
64.73
70.87
81.01
92.07
100.34
102.95
99.04
89.94
78.50
67.78
59.84
55.24
53.19
52.22
50.97
48.67
45.24
40.95
36.25
31.72
28.14
26.55
27.92
32.26
38.11
42.73
43.24
38.46
30.05
22.37
20.75
28.84
46.61
69.97
92.27
106.73
109.03
98.63
78.55
53.84
29.75
10.10
-3.56
-11.79
-16.65
-20.93
-27.23
-37.24
-51.29
-68.19
-85.65
-101.07
-112.37
-118.67
-120.25
-118.17
-113.57
-107.22
-99.59
-91.04
-82.14
-73.48
-65.40
-57.71
-49.88
-41.54
-32.91
-25.03
-19.34
-17.03
-18.50
-23.16
-29.70
-36.51
-42.15
-45.51
-45.87
-42.81
-36.27
-26.67
-15.05
-2.86
8.37
17.51
24.25
29.14
33.27
37.69
42.92
48.73
54.33
58.76
61.23
61.28
58.65
53.14
44.70
33.68
21.11
8.74
-1.42
-7.90
-10.40
-9.78
-7.42
-4.39
-0.75
4.08
10.57
18.19
25.34
30.00
30.76
27.59
21.70
15.01
9.40
6.35
6.91
11.68
20.62
32.81
46.24
58.09
65.54
66.77
61.47
50.91
37.38
23.57
11.96
4.32
1.16
1.62
3.78
5.54
5.53
3.44
-0.09
-3.95
-7.21
-9.29
-9.80
-7.99
-2.82
6.67
20.28
36.24
51.83
64.39
72.17
74.86
73.68
70.67
67.99
66.45
65.38
63.46
59.71
53.87
46.60
39.27
33.17
29.05
25.97
21.77
14.33
2.56
-13.60
-33.15
-54.01
-75.33
-92.67
-101.16
-99.93
-92.46
-82.29
-71.05
-59.29
-46.41
-31.72
-15.16
1.33
14.24
19.93
16.18
2.67
-18.96
-45.31
-72.06
-94.40
-108.33
-111.40
-102.84
-83.07
-53.70
-17.53
21.42
57.96
86.48
101.74
99.97
79.80
43.29
-4.29
-56.02
-104.83
-144.36
-168.82
-173.15
-155.08
-117.23
-67.27
-16.25
24.26
45.71
45.02
23.51
-9.79
-39.60
-52.98
-46.43
-24.64
4.85
35.85
64.27
88.08
106.36
117.99
121.22
114.68
98.29
73.21
42.81
13.33
-8.97
-18.32
-12.70
4.33
25.11
41.19
46.06
38.22
21.19
2.36
-12.24
-21.05
-26.86
-33.85
-44.46
-59.01
-73.93
-85.92
-92.31
-95.02
-99.27
-110.09
-128.18
-143.10
-142.60
-119.06
-80.26
-30.08
26.30
82.35
129.09
159.76
171.42
164.03
140.47
106.26
70.77
42.35
26.47
24.55
34.32
50.19
64.52
70.41
62.06
41.31
15.72
-6.44
-21.71
-31.37
-38.55
-45.62
-53.34
-61.18
-67.10
-70.23
-70.65
-67.84
-59.69
-45.22
-23.21
3.65
29.22
47.06
52.18
42.76
21.04
-7.22
-35.06
-54.67
-61.62
-56.52
-42.90
-25.02
-6.30
11.36
27.06
40.13
49.75
54.83
54.72
50.57
45.06
41.27
41.37
45.79
53.04
60.54
65.33
65.54
61.45
55.15
49.59
47.23
49.42
55.76
64.43
72.88
79.03
82.20
83.07
83.01
83.21
84.20
85.88
87.78
89.09
88.64
84.86
75.76
59.78
36.38
6.65
-27.06
-62.15
-97.11
-132.35
-169.87
-211.89
-258.87
-307.91
-352.63
-384.78
-397.02
-385.73
-352.20
-301.51
-240.01
-172.67
-102.05
-29.49
42.73
109.86
165.24
202.60
218.75
214.51
193.57
159.96
116.27
63.80
4.05
-59.04
-118.75
-167.16
-198.12
-209.79
-205.21
-190.65
-172.62
-155.39
-139.98
-124.71
-107.03
-85.10
-58.72
-29.19
1.41
31.06
58.34
82.36
102.52
117.99
127.82
131.37
128.96
122.31
114.36
108.52
107.37
111.59
119.45
127.50
131.97
130.39
122.53
110.19
96.14
82.65
70.74
60.19
50.54
42.09
36.19
34.72
38.99
48.88
62.80
78.47
93.85
107.85
120.01
129.75
135.84
136.82
132.10
123.09
113.10
105.92
103.50
104.34
103.84
96.44
78.57
50.48
16.20
-18.34
-47.93
-69.95
-84.99
-96.14
-107.54
-122.94
-144.44
-171.71
-201.85
-230.11
-251.39
-261.99
-260.89
-249.97
-233.07
-214.29
-196.22
-179.01
-160.48
-137.33
-107.08
-69.85
-29.11
9.28
39.28
57.37
64.07
63.55
61.34
61.44
64.32
67.15
65.73
57.22
42.16
24.32
8.74
-0.64
-2.81
0.46
6.32
12.76
19.27
26.01
32.15
35.12
31.40
18.70
-2.02
-26.16
-47.27
-59.85
-61.64
-54.08
-40.90
-25.91
-11.56
1.21
12.11
20.50
25.20
25.12
19.98
10.91
0.25
-9.28
-15.41
-17.12
-15.01
-10.77
-6.33
-3.04
-1.05
0.61
3.37
8.29
15.35
23.28
30.04
33.55
32.48
26.80
17.90
8.60
2.74
4.46
17.00
41.29
74.73
111.15
142.28
160.37
161.06
145.07
117.90
87.60
61.85
45.60
40.27
44.46
55.31
69.72
84.88
98.28
107.66
111.23
108.10
98.69
84.76
68.91
53.77
41.21
31.85
25.14
19.72
14.19
7.66
0.13
-7.59
-14.30
-18.97
-21.23
-21.55
-21.06
-21.08
-22.63
-26.11
-31.24
-37.21
-43.04
-47.97
-51.65
-54.30
-56.55
-59.21
-62.91
-67.83
-73.63
-79.47
-84.28
-87.00
-86.95
-83.93
-78.28
-70.70
-62.13
-53.42
-45.14
-37.59
-30.77
-24.60
-18.98
-13.95
-9.57
-5.87
-2.71
0.17
3.02
5.96
8.87
11.44
13.28
14.10
13.78
12.34
9.99
7.03
3.96
1.47
0.39
1.41
4.83
10.29
16.71
22.63
26.60
27.66
25.58
20.82
14.23
6.72
-1.04
-8.74
-16.30
-23.75
-31.16
-38.53
-45.82
-52.83
-59.20
-64.34
-67.59
-68.48
-67.00
-63.84
-60.22
-57.56
-57.05
-59.25
-63.83
-69.72
-75.32
-78.92
-79.02
-74.67
-65.47
-51.56
-33.34
-11.42
13.25
39.16
63.94
84.50
97.75
101.57
95.78
82.38
64.95
47.35
32.35
20.90
12.04
3.65
-6.60
-20.24
-37.19
-55.15
-69.50
-74.20
-63.84
-36.16
6.00
54.55
98.24
126.37
132.40
115.78
81.55
38.25
-4.80
-39.35
-59.24
-60.71
-42.71
-7.46
39.23
88.46
129.94
154.50
156.88
137.34
101.85
60.47
24.27
1.94
-2.87
7.62
26.57
45.41
57.30
59.35
52.91
41.98
30.82
21.48
12.95
1.84
-15.61
-41.11
-72.70
-104.64
-129.17
-139.44
-132.25
-109.50
-77.40
-44.03
-16.49
0.99
7.67
5.30
-3.14
-14.53
-26.06
-35.32
-40.40
-40.22
-34.82
-25.48
-14.47
-4.42
2.45
5.05
3.82
0.65
-1.67
-0.49
5.57
15.75
27.27
36.25
39.07
33.87
21.22
4.04
-13.31
-26.35
-32.04
-29.69
-21.23
-10.51
-1.68
2.51
1.77
-1.86
-5.13
-5.24
-0.94
7.37
18.29
30.40
42.69
54.33
64.18
70.62
72.04
67.79
58.81
47.54
36.95
29.29
25.26
24.03
24.07
24.04
23.40
22.31
21.12
19.92
18.33
15.88
12.36
8.19
4.26
1.55
0.69
1.54
3.34
5.03
5.71
4.94
2.89
0.20
-2.19
-3.30
-2.26
1.50
7.99
16.42
25.22
32.41
36.34
36.52
34.15
32.05
33.72
41.69
55.99
73.54
89.08
97.20
94.85
82.71
64.67
45.96
30.76
21.15
17.40
19.20
26.59
39.79
58.07
78.68
96.87
107.26
105.84
91.33
65.02
29.38
-13.39
-61.59
-112.93
-163.01
-204.81
-230.52
-234.93
-218.60
-188.61
-155.99
-131.00
-118.58
-116.32
-116.56
-111.07
-95.85
-73.25
-50.51
-35.45
-32.63
-41.52
-57.57
-74.75
-88.11
-94.97
-94.88
-89.12
-79.32
-67.17
-54.57
-43.94
-38.24
-40.33
-51.74
-71.43
-95.71
-117.86
-130.17
-126.90
-106.89
-74.52
-38.09
-6.47
14.41
23.02
22.94
20.26
20.18
24.71
32.39
39.68
43.03
44.21
44.37
45.44
49.46
57.73
69.84
83.58
95.87
104.35
108.46
107.43
101.25
90.35
75.32
56.89
36.17
14.63
-5.17
-21.42
-34.49
-46.15
-58.58
-73.09
-89.08
-103.98
-114.37
-117.52
-112.92
-102.62
-89.69
-77.01
-66.43
-58.66
-53.53
-50.41
-48.35
-46.19
-42.66
-36.35
-26.31
-12.60
3.62
20.35
35.48
47.54
55.92
60.94
63.49
64.47
64.45
63.50
61.44
58.13
53.73
48.57
43.12
37.67
32.42
27.72
24.29
23.07
24.88
30.10
38.32
48.77
60.27
71.57
81.88
90.89
98.56
104.80
109.63
112.96
115.53
117.83
120.08
122.29
124.41
126.02
126.50
125.59
123.16
120.66
119.21
119.20
120.46
122.51
124.38
124.85
123.31
118.95
112.40
103.37
90.81
73.99
53.34
29.87
4.54
-21.90
-57.79
-102.91
-150.49
-192.60
-223.94
-241.31
-243.18
-234.47
-217.35
-195.58
-172.42
-151.39
-134.95
-123.44
-113.92
-103.58
-90.21
-72.71
-52.57
-31.56
-12.08
3.62
14.57
21.54
25.76
28.34
30.11
30.84
30.71
29.73
27.51
23.76
19.01
13.95
9.18
5.10
1.32
-2.43
-6.37
-10.87
-16.11
-21.51
-26.75
-32.24
-39.04
-48.24
-60.41
-72.72
-80.76
-81.66
-74.78
-61.78
-44.87
-26.32
-8.27
7.86
21.50
32.73
38.87
39.40
35.81
31.73
32.69
43.92
67.22
98.62
128.80
146.84
145.97
126.64
96.11
65.95
46.39
41.16
46.16
52.52
52.08
41.76
23.41
0.30
-24.08
-47.78
-70.14
-90.18
-104.76
-108.24
-94.73
-61.27
-15.52
27.08
53.60
62.59
62.03
61.89
67.77
77.89
88.15
88.11
72.24
42.49
6.85
-25.17
-46.27
-53.15
-46.83
-31.14
-15.32
-7.71
-11.78
-25.39
-44.17
-64.45
-83.40
-99.26
-111.38
-120.45
-126.10
-128.60
-125.60
-116.79
-105.02
-93.19
-82.95
-74.68
-68.07
-61.38
-52.55
-39.09
-20.76
-0.87
18.20
34.19
46.50
55.52
62.58
69.12
77.68
89.33
101.47
112.61
123.07
133.19
142.80
151.64
150.16
134.03
119.14
110.89
104.35
97.24
87.91
75.45
60.19
43.46
28.51
17.53
8.40
-0.80
-10.62
-21.29
-32.32
-42.59
-50.86
-55.17
-54.85
-52.36
-49.54
-46.54
-43.12
-38.76
-32.97
-25.54
-15.97
-4.43
6.80
15.63
20.74
21.18
16.95
9.33
0.64
-6.22
-9.35
-9.13
-7.15
-5.31
-5.30
-7.86
-12.67
-18.77
-24.94
-30.24
-34.37
-37.25
-38.94
-39.87
-40.68
-42.01
-44.38
-48.09
-53.45
-60.68
-69.68
-79.55
-88.45
-93.81
-93.30
-85.92
-72.64
-56.34
-40.31
-26.64
-15.54
-5.87
3.68
13.67
23.62
32.58
39.25
42.87
43.34
40.96
36.11
29.50
22.45
16.77
14.19
14.97
18.39
23.48
29.47
35.61
41.11
45.00
45.98
42.86
34.00
18.94
-0.88
-22.51
-42.82
-58.96
-68.47
-69.56
-56.68
-29.68
3.91
33.20
51.31
57.78
56.44
53.13
50.78
50.20
50.00
48.82
46.87
45.72
46.32
48.18
48.97
45.43
35.17
17.31
-6.34
-31.60
-53.66
-69.22
-77.35
-79.17
-76.68
-71.43
-64.40
-55.83
-45.58
-34.13
-23.16
-15.09
-11.90
-13.98
-19.62
-25.97
-30.28
-31.20
-29.38
-26.92
-26.00
-27.51
-30.57
-33.02
-32.59
-27.84
-18.48
-4.91
12.25
32.62
56.02
81.83
108.40
132.95
152.30
164.06
167.88
165.71
160.95
157.00
155.73
156.72
157.51
154.80
146.07
130.75
110.55
88.72
68.63
52.21
39.01
26.32
10.41
-11.81
-41.42
-77.21
-116.38
-155.77
-192.52
-224.06
-247.98
-261.84
-263.68
-252.71
-229.93
-198.04
-160.86
-122.53
-87.15
-58.41
-38.87
-29.06
-27.32
-30.59
-36.00
-42.20
-49.44
-58.75
-69.78
-78.75
-78.92
-64.01
-32.81
8.75
49.23
76.98
84.40
69.85
37.22
-6.50
-54.12
-99.74
-137.65
-161.04
-161.81
-134.34
-79.92
-8.05
66.16
126.77
162.03
168.42
146.68
106.56
65.16
36.94
25.49
25.38
29.64
34.59
41.13
51.91
68.36
87.94
104.47
111.74
107.38
95.24
79.85
65.93
55.91
49.81
45.77
41.73
37.32
33.99
33.35
34.90
35.95
32.73
22.88
6.60
-13.85
-33.32
-46.63
-51.10
-47.83
-40.12
-31.48
-23.75
-17.00
-10.95
-5.83
-2.86
-3.15
-6.61
-10.99
-12.64
-8.20
3.40
19.75
35.99
46.73
48.56
41.61
29.62
18.13
11.94
13.03
19.94
28.82
35.27
36.26
31.20
22.29
13.36
8.21
8.90
14.64
22.07
26.76
25.40
17.82
7.08
-2.30
-7.36
-8.66
-10.09
-16.34
-29.67
-47.70
-63.91
-70.81
-63.84
-44.11
-18.02
5.40
18.40
17.64
5.42
-11.56
-25.44
-30.54
-25.79
-14.70
-3.47
2.33
0.40
-7.13
-14.82
-16.70
-9.42
6.04
24.50
38.74
42.90
35.33
19.77
3.76
-4.88
-1.95
10.78
26.44
36.39
34.94
22.51
5.46
-7.30
-9.20
0.39
15.78
28.07
29.75
18.73
-0.67
-19.84
-30.36
-28.03
-14.81
2.24
14.50
15.93
5.90
-10.70
-25.85
-32.31
-27.10
-12.67
4.37
16.58
19.30
12.72
1.34
-8.55
-12.13
-8.36
-0.24
6.91
8.28
1.85
-10.73
-25.16
-36.50
-41.40
-39.34
-32.65
-25.35
-21.24
-22.32
-27.75
-34.22
-37.48
-34.58
-25.53
-13.78
-4.94
-4.04
-12.90
-28.42
-43.62
-50.82
-45.58
-29.30
-8.74
7.15
11.64
3.16
-13.66
-30.34
-38.64
-34.32
-18.80
1.85
19.86
29.12
26.84
15.28
0.64
-9.80
-10.89
-2.03
12.68
26.12
31.25
22.80
1.25
-26.94
-52.29
-66.69
-67.22
-57.02
-43.56
-34.82
-37.50
-51.58
-70.11
-83.16
-83.26
-69.79
-49.06
-31.18
-25.24
-37.72
-66.63
-102.49
-133.80
-153.18
-161.16
-164.06
-168.98
-160.59
-128.98
-73.99
-4.87
65.50
123.93
158.27
162.13
138.52
99.30
57.37
24.01
5.28
-1.58
-0.24
5.17
12.91
23.85
39.70
58.48
76.37
89.38
94.95
93.13
84.88
73.35
61.79
52.13
43.75
36.61
32.23
32.59
38.08
45.96
52.47
54.11
49.98
41.69
33.47
29.87
32.90
40.65
47.66
48.17
36.95
13.25
-19.07
-52.84
-80.70
-98.04
-104.12
-101.07
-91.28
-76.55
-57.83
-36.48
-15.23
2.39
13.44
17.05
14.81
10.54
7.58
7.64
10.63
15.76
22.48
30.22
37.46
41.84
42.04
37.64
30.55
24.92
25.93
37.48
59.68
87.79
114.79
135.69
148.07
152.85
153.41
154.45
160.55
174.62
196.28
212.60
211.83
187.36
140.72
78.43
8.36
-61.32
-122.94
-174.26
-215.27
-243.88
-258.45
-258.78
-246.60
-225.30
-199.37
-168.39
-136.06
-105.33
-76.50
-49.13
-23.24
-0.20
17.76
28.75
32.50
29.62
22.87
16.21
12.57
13.02
16.72
21.72
25.87
28.21
28.21
26.42
23.69
20.15
15.25
8.01
-2.34
-15.75
-30.11
-42.64
-50.97
-55.06
-57.39
-61.35
-69.06
-79.62
-88.99
-90.37
-78.02
-50.21
-10.32
35.55
82.26
127.54
171.28
205.46
219.08
205.00
166.10
113.01
58.04
10.93
-23.16
-44.01
-54.83
-58.41
-55.61
-46.03
-30.17
-10.55
8.69
23.09
29.51
27.23
18.80
8.48
-0.19
-5.97
-9.53
-12.00
-13.71
-14.22
-12.91
-9.28
-3.66
2.47
7.28
9.05
7.53
3.95
0.26
-1.83
-1.52
0.90
4.25
6.91
7.53
5.91
3.01
0.42
-0.40
1.00
4.49
9.66
15.85
21.95
26.53
28.13
25.75
19.56
10.70
2.03
-2.60
-0.32
8.94
22.25
35.15
43.38
44.06
36.09
21.00
2.09
-17.53
-36.25
-53.72
-69.62
-83.79
-90.47
-88.75
-84.08
-83.20
-87.50
-92.17
-89.97
-75.75
-49.97
-17.94
12.50
36.10
52.53
64.58
74.13
79.56
76.50
60.46
30.79
-8.15
-47.50
-77.29
-90.58
-86.30
-70.13
-47.53
-24.50
-5.84
5.01
6.59
-0.30
-12.41
-25.18
-33.56
-33.42
-23.75
-6.58
13.88
33.48
49.83
62.96
73.73
83.10
91.13
96.21
96.21
89.93
78.02
61.25
42.43
23.89
7.45
-5.78
-15.45
-20.90
-20.66
-12.85
3.57
29.16
58.20
82.14
94.36
93.10
81.16
63.48
44.83
28.14
13.75
-0.10
-14.33
-28.72
-42.29
-54.02
-63.10
-69.45
-73.95
-74.03
-69.21
-58.83
-42.78
-22.88
-3.71
8.80
9.22
-4.94
-31.70
-66.33
-103.12
-138.98
-174.83
-213.85
-256.81
-299.84
-334.60
-351.58
-344.71
-313.64
-263.73
-203.22
-139.60
-75.93
-12.95
48.32
104.69
151.29
183.84
200.63
203.38
196.84
189.00
186.63
192.74
205.88
221.72
235.42
243.26
243.60
226.70
190.37
141.93
94.64
58.61
36.64
26.08
22.26
20.85
18.80
16.27
13.95
11.80
8.75
3.91
-2.60
-9.74
-16.19
-20.88
-21.35
-17.56
-11.22
-5.07
-1.10
0.56
1.24
2.38
4.62
7.98
11.14
11.54
6.50
-5.23
-22.54
-42.57
-61.69
-76.79
-85.88
-87.36
-82.08
-72.79
-62.93
-54.89
-49.33
-44.98
-39.21
-29.14
-13.39
7.17
27.65
40.77
42.09
32.58
17.35
2.48
-7.59
-11.09
-8.69
-1.60
8.73
22.41
39.45
58.65
77.49
92.83
101.77
98.49
82.84
57.67
27.51
-3.17
-30.95
-53.59
-69.92
-79.37
-81.92
-77.77
-68.64
-57.45
-47.70
-42.35
-42.47
-46.68
-51.79
-54.63
-53.27
-48.43
-43.12
-39.22
-37.89
-38.94
-40.87
-41.30
-38.20
-30.59
-19.42
-6.55
6.26
17.62
26.74
33.45
38.33
41.73
43.28
41.42
34.62
22.23
4.36
-18.35
-44.41
-70.38
-91.38
-100.61
-92.09
-62.20
-11.34
55.03
124.88
179.46
203.49
194.14
160.70
116.14
70.44
28.93
-5.98
-32.53
-48.63
-52.27
-43.83
-27.19
-8.32
7.07
16.15
19.15
17.91
13.76
7.53
-0.40
-9.30
-17.95
-24.33
-26.13
-22.34
-13.45
-2.31
7.67
14.26
17.74
19.96
23.23
29.08
36.97
44.31
47.68
45.26
38.11
29.79
23.70
21.95
24.79
30.25
34.52
33.09
22.72
1.49
-26.31
-52.68
-70.73
-78.30
-77.55
-72.25
-65.30
-57.52
-50.00
-42.68
-38.45
-41.14
-52.52
-70.20
-88.13
-98.93
-97.13
-78.46
-42.42
0.53
34.60
48.95
44.21
29.99
17.89
15.74
25.08
42.21
60.54
74.54
81.52
81.53
75.90
66.50
55.15
43.30
30.38
17.00
5.17
-1.67
-0.68
7.86
20.01
29.84
32.20
25.35
12.35
0.19
-3.62
4.48
21.46
39.37
49.85
47.89
33.56
11.36
-12.44
-31.92
-41.75
-42.01
-38.81
-39.13
-45.92
-57.36
-68.59
-74.01
-69.47
-53.79
-29.56
-2.08
22.68
39.52
45.10
38.83
22.86
1.39
-20.76
-39.66
-52.92
-59.34
-58.97
-52.89
-42.81
-30.78
-19.00
-9.59
-4.31
-4.02
-7.89
-14.00
-20.37
-25.64
-29.37
-31.75
-33.50
-33.97
-32.17
-26.69
-16.79
-2.93
12.85
27.43
37.57
41.25
38.63
31.78
25.09
22.45
25.01
30.55
34.62
33.09
24.59
11.42
-2.64
-14.09
-21.84
-27.53
-34.41
-45.44
-61.54
-80.84
-99.13
-111.25
-112.37
-99.71
-73.47
-37.06
3.64
41.63
71.02
88.30
93.03
87.77
76.92
65.19
56.30
51.94
51.66
54.01
57.28
60.74
65.11
71.78
81.57
93.75
106.43
114.11
113.82
105.11
90.02
72.01
54.37
38.89
25.75
14.28
3.79
-5.36
-12.34
-16.60
-18.59
-20.03
-22.98
-28.66
-36.83
-45.79
-52.71
-54.79
-50.53
-41.30
-31.50
-27.01
-32.68
-50.54
-79.34
-115.27
-152.77
-186.12
-210.93
-224.80
-226.85
-217.34
-198.05
-172.45
-144.74
-117.03
-88.25
-55.32
-15.39
32.53
87.02
144.66
201.24
245.43
265.15
255.16
220.82
173.71
124.98
82.43
50.36
29.68
19.30
15.53
15.87
18.44
21.39
22.84
21.20
15.54
6.11
-6.61
-19.35
-27.66
-28.39
-21.10
-8.01
7.17
20.82
30.75
36.43
39.38
42.36
47.71
56.28
66.62
75.01
76.86
68.68
49.31
20.66
-13.04
-47.07
-76.65
-95.50
-100.01
-92.01
-77.07
-61.23
-48.90
-42.40
-42.69
-47.58
-54.28
-60.41
-64.34
-65.47
-64.46
-62.97
-61.62
-61.52
-62.72
-64.43
-65.63
-65.37
-62.85
-57.76
-50.44
-41.89
-33.55
-26.64
-22.10
-20.47
-21.51
-23.84
-25.27
-23.59
-17.31
-6.53
7.35
21.64
33.36
40.25
41.67
38.70
33.67
29.33
27.82
30.22
36.21
44.07
51.32
55.51
55.07
49.85
41.23
31.49
23.12
17.93
16.70
19.19
24.57
31.73
39.53
46.81
52.42
55.28
54.74
50.89
44.56
37.11
29.91
23.72
18.48
13.53
8.19
2.31
-3.37
-7.42
-8.46
-5.74
0.49
9.03
18.33
27.01
34.23
39.92
44.50
48.40
51.61
53.79
54.33
53.03
49.98
45.38
39.71
33.51
27.03
20.16
12.74
4.55
-3.94
-12.32
-20.48
-28.09
-34.56
-39.57
-43.40
-46.69
-50.64
-55.30
-60.18
-64.39
-66.15
-63.35
-54.76
-40.55
-21.84
-0.43
23.25
49.02
71.76
85.04
85.22
74.08
56.91
42.84
32.08
23.70
16.66
10.29
3.37
-2.85
-6.44
-6.10
-1.67
3.31
5.24
0.56
-12.38
-31.91
-53.43
-72.42
-86.58
-94.32
-95.86
-91.58
-82.74
-69.83
-54.88
-40.08
-27.86
-20.25
-19.34
-26.36
-38.89
-51.61
-58.44
-55.18
-40.78
-17.75
8.52
35.09
59.73
82.04
102.71
122.24
139.50
152.04
157.70
151.58
133.34
105.42
72.60
40.27
12.71
-8.02
-22.17
-31.13
-36.88
-40.96
-45.42
-51.80
-60.76
-72.03
-85.12
-99.59
-113.80
-124.85
-128.70
-122.50
-105.59
-80.37
-52.21
-25.41
-7.35
-3.44
-12.82
-28.26
-41.17
-45.27
-40.01
-27.36
-11.13
3.87
14.08
18.16
17.02
11.91
4.61
-1.55
-3.57
-1.14
3.09
6.39
8.30
11.53
18.52
29.41
42.01
52.55
58.08
57.68
51.16
41.05
31.80
27.28
29.32
37.70
50.02
63.35
74.40
79.65
72.27
49.33
14.03
-25.35
-58.90
-79.13
-82.99
-69.23
-38.70
4.60
55.48
108.60
156.10
190.74
201.08
183.46
144.56
96.49
48.70
5.88
-30.99
-64.88
-96.05
-122.95
-142.47
-153.35
-153.63
-146.08
-134.57
-122.46
-112.00
-103.50
-96.72
-89.97
-82.02
-72.89
-63.48
-53.59
-42.43
-30.04
-17.32
-6.61
0.80
4.34
4.21
1.38
-1.41
-0.92
4.94
16.96
34.08
55.43
79.63
101.69
114.78
115.27
105.44
91.17
81.15
75.54
72.63
70.61
68.24
63.52
56.70
48.81
40.60
32.68
25.41
20.32
18.90
21.28
25.79
30.08
33.03
35.12
37.06
38.04
35.31
25.90
8.30
-16.11
-42.91
-65.14
-76.84
-75.75
-64.45
-48.49
-34.03
-25.32
-22.88
-23.67
-23.42
-19.47
-12.00
-3.59
2.90
5.80
5.32
3.32
2.06
2.85
5.21
7.42
7.63
5.01
-0.46
-7.80
-15.59
-22.48
-27.75
-31.48
-34.26
-36.85
-40.03
-45.19
-53.23
-64.24
-77.12
-90.26
-102.06
-111.27
-117.19
-119.65
-119.79
-118.35
-115.57
-110.86
-103.94
-95.22
-85.50
-75.53
-59.61
-35.38
-4.37
28.82
60.61
89.32
113.87
132.55
142.95
143.28
132.72
115.41
95.26
77.43
66.22
63.72
69.73
81.97
97.09
108.41
110.08
98.44
73.81
39.87
2.40
-32.18
-59.03
-75.79
-83.31
-83.93
-80.47
-74.80
-67.99
-62.01
-56.56
-51.90
-48.33
-46.06
-44.41
-42.19
-37.80
-30.30
-19.95
-7.97
3.45
12.34
17.53
19.17
18.36
16.85
15.52
14.68
14.09
12.90
10.40
6.34
1.03
-4.87
-10.27
-14.33
-16.73
-17.65
-17.64
-17.15
-16.25
-14.69
-12.11
-7.80
-1.49
6.44
15.18
23.72
31.44
38.44
45.49
51.13
54.88
57.49
60.39
64.51
69.18
72.84
74.08
72.31
68.02
62.73
57.81
53.64
49.88
45.71
40.65
34.91
28.99
23.26
17.90
13.19
8.00
2.03
-4.06
-8.73
-10.51
-9.35
-7.14
-6.77
-10.84
-20.19
-33.17
-46.56
-56.83
-61.75
-61.21
-56.73
-50.24
-43.16
-36.06
-27.41
-16.92
-4.97
7.61
19.87
31.03
40.65
48.39
53.86
56.66
56.25
52.53
45.88
37.18
27.60
18.41
10.57
4.62
0.72
-1.46
-2.35
-2.48
-2.50
-3.15
-5.15
-8.96
-14.59
-21.57
-29.17
-36.58
-43.06
-48.17
-51.70
-53.65
-54.21
-53.85
-53.32
-53.64
-55.82
-60.61
-68.31
-78.65
-90.65
-102.64
-112.34
-117.37
-115.76
-106.60
-90.42
-69.35
-46.62
-25.51
-8.44
3.75
11.56
16.44
20.00
23.49
27.58
32.35
37.61
43.11
48.57
53.35
56.63
57.77
56.78
54.35
51.42
49.05
48.27
49.88
53.46
57.79
61.49
63.49
63.25
60.12
54.09
46.18
38.70
33.09
30.11
30.09
33.03
38.38
43.95
47.49
47.90
46.38
43.33
38.99
33.65
27.62
20.72
10.76
-4.23
-24.62
-47.68
-71.66
-95.01
-115.69
-130.77
-128.33
-100.80
-50.87
3.39
55.80
102.58
139.79
162.06
166.34
153.13
125.11
87.93
49.85
21.13
8.40
14.35
37.46
72.56
111.76
145.46
166.20
171.12
162.80
144.57
119.33
89.04
55.13
19.39
-16.07
-48.16
-73.54
-89.68
-97.35
-99.43
-99.13
-98.18
-96.53
-93.56
-88.85
-82.97
-77.24
-73.78
-74.14
-78.25
-84.40
-90.10
-93.43
-93.76
-91.92
-89.65
-89.03
-91.30
-96.13
-101.57
-104.76
-103.16
-95.62
-82.95
-67.55
-52.59
-40.83
-33.87
-31.82
-33.55
-37.19
-40.75
-42.82
-42.98
-42.12
-42.14
-45.05
-51.90
-61.83
-72.18
-79.46
-80.99
-76.28
-67.32
-57.82
-51.71
-51.61
-58.14
-70.13
-85.26
-100.97
-114.90
-125.14
-130.38
-130.12
-124.86
-115.98
-105.20
-93.69
-81.38
-66.61
-46.26
-16.81
23.98
75.62
133.54
189.18
231.70
251.01
241.43
204.13
147.42
83.97
26.61
-15.83
-40.39
-48.94
-45.56
-34.02
-17.03
3.06
22.76
37.41
42.58
36.36
20.99
2.69
-10.81
-14.33
-5.70
11.47
31.34
48.60
60.67
68.05
72.80
76.53
78.86
77.82
71.12
58.34
41.59
24.75
11.79
5.54
6.53
13.45
24.21
36.71
49.30
60.37
68.20
71.19
69.06
62.22
51.66
38.91
25.73
14.11
5.76
1.88
2.93
9.47
20.79
35.01
49.88
63.57
75.14
84.30
91.19
95.95
99.82
103.02
104.55
102.93
97.43
88.82
79.23
71.25
58.71
39.51
14.79
-12.57
-39.95
-64.94
-84.74
-96.72
-99.96
-96.28
-88.29
-79.23
-71.99
-68.15
-67.40
-68.18
-68.52
-67.26
-64.55
-60.11
-53.97
-46.55
-38.26
-29.15
-19.11
-7.90
3.76
13.88
19.94
20.08
13.51
1.14
-14.64
-30.51
-42.82
-49.36
-50.20
-47.53
-43.33
-39.17
-35.77
-33.00
-29.81
-23.70
-12.35
4.87
25.98
48.55
69.44
85.67
95.22
92.80
78.00
57.29
45.35
45.48
55.73
70.16
83.37
90.94
90.73
84.41
75.73
68.03
62.22
58.34
55.32
52.14
48.90
47.37
50.68
60.58
75.22
89.17
97.06
95.43
84.02
65.10
41.87
16.93
-7.59
-32.35
-57.96
-82.81
-103.62
-117.02
-121.59
-118.73
-112.02
-105.85
-103.72
-106.68
-112.71
-118.09
-119.33
-114.76
-104.91
-91.59
-76.67
-61.44
-46.41
-32.04
-19.53
-10.72
-7.14
-8.77
-13.52
-18.01
-19.23
-15.99
-9.47
-2.55
1.63
0.97
-5.04
-15.54
-28.82
-42.83
-55.29
-64.04
-67.33
-64.41
-55.83
-43.48
-30.09
-18.29
-9.90
-5.29
-3.37
-2.06
0.79
6.57
15.20
25.10
33.84
39.02
39.20
34.08
24.20
10.44
-6.45
-25.71
-46.29
-66.48
-84.14
-97.10
-103.75
-103.32
-95.74
-81.43
-61.23
-36.72
-10.52
13.66
31.81
40.79
39.49
29.22
13.19
-4.65
-20.92
-33.52
-41.72
-45.56
-45.27
-40.93
-32.57
-20.60
-6.03
9.55
24.37
37.03
46.85
53.79
58.34
61.10
62.51
62.81
62.15
60.75
59.04
57.57
56.68
56.25
55.53
53.36
48.47
39.89
27.37
11.45
-6.59
-25.19
-42.97
-59.14
-73.68
-87.01
-99.84
-112.69
-125.60
-137.94
-148.13
-153.84
-152.40
-141.68
-120.96
-91.42
-55.69
-16.81
23.01
63.02
103.79
146.25
190.57
235.62
279.18
318.85
352.83
380.48
402.28
419.45
433.51
445.72
456.51
464.84
468.22
463.21
446.65
416.85
374.16
320.75
259.55
193.44
124.73
55.38
-12.71
-77.67
-138.38
-195.23
-250.18
-305.27
-360.37
-411.49
-451.10
-470.79
-465.18
-435.01
-387.79
-335.66
-291.84
-267.14
-267.90
-295.30
-345.62
-410.80
-479.55
-539.29
-578.86
-591.46
-576.19
-537.69
-483.65
-421.74
-357.51
-293.65
-230.90
-169.15
-108.34
-48.38
11.23
71.49
133.20
196.03
257.78
314.69
362.49
397.88
419.78
429.39
429.42
422.71
411.09
395.24
375.12
350.87
323.31
294.01
264.88
237.69
213.66
193.28
176.37
162.31
149.92
137.65
123.98
108.07
90.23
71.86
54.80
40.43
29.39
20.94
13.40
4.93
-5.36
-17.04
-28.81
-39.43
-48.35
-55.16
-60.04
-63.81
-67.67
-72.55
-78.74
-85.72
-92.57
-98.17
-100.50
-98.48
-92.90
-86.19
-80.78
-77.47
-74.99
-70.75
-62.15
-45.88
-20.43
13.01
50.84
88.85
123.64
153.16
176.58
183.86
169.48
136.27
94.52
54.26
19.79
-9.34
-34.82
-57.26
-75.87
-87.32
-89.08
-81.36
-67.33
-51.60
-38.21
-29.50
-26.75
-30.46
-38.60
-48.48
-57.91
-65.88
-72.26
-77.05
-80.55
-81.51
-80.94
-79.20
-76.10
-71.04
-63.58
-53.66
-41.45
-27.84
-14.29
-2.62
7.25
15.83
23.72
31.20
38.33
45.40
52.72
60.46
68.29
75.66
81.37
83.70
80.90
69.80
49.70
22.08
-9.70
-41.58
-70.07
-93.75
-113.71
-132.72
-153.37
-175.92
-198.03
-215.54
-224.75
-224.23
-215.57
-202.19
-187.10
-171.25
-153.05
-130.11
-101.11
-67.12
-31.07
3.63
34.78
62.09
86.65
109.79
131.81
151.81
168.33
180.37
188.01
192.38
194.92
196.51
197.10
195.65
190.70
181.08
166.55
147.95
127.04
105.99
86.87
71.17
59.60
51.99
47.16
42.92
36.25
24.10
4.62
-21.64
-51.40
-79.51
-100.80
-112.13
-113.45
-107.41
-97.78
-87.65
-78.33
-69.45
-60.03
-49.51
-38.24
-27.10
-16.84
-7.71
0.42
7.40
12.33
13.58
9.51
-0.31
-14.05
-27.71
-36.24
-35.56
-24.51
-5.53
16.12
34.36
44.60
45.13
37.27
24.35
10.27
-1.71
-9.44
-11.70
-7.80
2.43
18.39
38.23
58.90
76.89
89.23
94.49
93.02
86.44
76.59
64.70
51.09
35.73
18.97
1.85
-14.01
-27.12
-36.74
-43.13
-47.32
-50.53
-53.57
-56.56
-59.17
-60.99
-61.99
-62.47
-62.79
-63.00
-62.48
-60.01
-54.24
-44.39
-30.81
-15.11
0.62
14.29
24.18
29.29
29.32
24.70
16.34
5.47
-6.62
-18.11
-27.32
-33.50
-36.85
-38.19
-38.30
-37.59
-36.23
-34.31
-31.11
-25.79
-18.18
-9.07
-0.06
7.04
10.60
9.60
4.35
-1.91
-4.20
1.98
18.64
44.51
75.79
107.56
135.38
150.19
145.70
122.67
88.96
53.75
22.15
-4.88
-28.10
-48.31
-65.49
-78.01
-83.85
-81.93
-72.40
-56.57
-36.40
-14.35
6.66
23.84
35.94
43.82
47.35
46.16
40.16
30.13
17.70
4.92
-6.19
-13.65
-16.27
-14.40
-9.53
-3.87
0.50
1.90
-0.65
-7.05
-15.76
-24.35
-30.58
-32.27
-28.28
-18.77
-5.56
8.46
20.31
28.03
30.85
29.03
23.88
17.32
11.35
6.97
3.82
0.51
-4.49
-12.38
-23.47
-36.88
-50.67
-59.77
-59.31
-48.18
-30.40
-12.00
2.42
10.77
13.15
11.07
6.82
2.23
-1.70
-4.88
-7.73
-10.93
-15.03
-20.03
-25.34
-30.09
-34.01
-37.37
-40.60
-43.54
-45.42
-45.15
-41.84
-35.13
-25.21
-13.49
-0.99
10.83
20.52
26.81
29.29
28.36
25.02
20.54
15.62
10.25
3.83
-3.87
-12.30
-19.54
-23.48
-22.99
-18.75
-13.24
-9.46
-9.97
-15.28
-23.74
-31.33
-33.77
-28.79
-17.23
-2.76
10.34
18.34
20.62
19.45
20.04
27.50
44.35
69.61
98.93
127.51
151.05
167.24
167.83
148.39
111.37
65.83
23.44
-6.08
-15.58
-3.29
28.05
70.43
113.46
146.79
163.18
160.81
137.65
98.41
49.05
2.56
-29.72
-43.31
-42.09
-37.36
-35.35
-39.22
-49.22
-65.10
-83.61
-104.28
-127.32
-152.32
-176.89
-196.41
-206.51
-203.94
-188.59
-163.20
-133.37
-104.31
-79.06
-58.26
-41.04
-27.05
-16.15
-8.33
-2.95
0.47
2.94
5.79
10.19
16.46
23.31
28.41
29.29
24.65
14.76
2.06
-9.36
-15.43
-13.90
-5.21
7.93
22.07
34.36
43.02
47.37
47.33
43.68
36.49
26.63
17.04
12.62
17.19
30.78
48.61
63.31
68.08
60.52
43.13
21.11
-0.04
-17.38
-31.36
-44.35
-57.74
-71.47
-84.50
-93.32
-96.75
-95.41
-91.26
-86.07
-80.69
-74.69
-68.87
-66.06
-69.98
-82.66
-99.93
-113.53
-114.63
-103.86
-84.54
-62.30
-42.02
-28.19
-22.08
-21.36
-22.22
-21.58
-18.23
-11.80
-3.13
6.39
15.07
21.17
23.52
21.91
18.07
16.15
22.31
41.38
74.26
116.38
158.53
189.36
198.79
181.54
139.48
81.98
23.09
-22.60
-44.28
-37.86
-6.68
40.04
90.79
135.37
167.32
184.13
186.25
175.86
156.18
131.18
105.20
82.31
65.37
55.40
51.67
52.66
57.05
64.47
75.19
88.93
104.03
117.60
126.96
131.17
131.69
131.59
133.68
138.97
146.33
153.70
159.54
163.65
166.57
168.11
166.39
158.10
139.84
109.88
68.94
20.00
-32.83
-85.16
-132.82
-171.97
-199.29
-212.65
-211.85
-199.16
-179.05
-156.93
-137.54
-123.49
-114.77
-109.20
-103.75
-96.01
-85.30
-72.94
-61.61
-54.20
-52.51
-56.43
-63.90
-71.62
-76.19
-75.39
-68.91
-58.42
-47.03
-38.17
-34.44
-36.91
-44.99
-57.01
-70.89
-84.85
-97.47
-107.68
-114.43
-116.78
-114.34
-107.87
-99.72
-93.24
-91.29
-94.53
-100.67
-105.34
-104.33
-95.93
-81.74
-65.64
-51.20
-39.58
-29.00
-16.32
0.53
20.67
40.26
54.49
59.96
56.55
47.45
37.65
31.90
33.13
42.13
57.77
77.93
100.00
121.26
138.90
150.44
154.74
152.82
148.20
145.70
149.24
159.48
172.89
182.81
182.50
168.29
141.06
105.40
66.98
29.90
-4.59
-37.27
-69.11
-99.51
-126.01
-145.62
-156.67
-159.91
-157.84
-153.28
-147.94
-142.38
-136.59
-131.06
-127.10
-126.03
-127.91
-130.71
-130.99
-125.76
-114.79
-100.45
-86.26
-75.03
-67.65
-63.08
-59.35
-55.00
-49.80
-45.66
-44.25
-45.35
-46.66
-45.13
-38.61
-26.87
-11.73
3.79
15.22
19.93
18.52
13.86
8.90
5.01
2.10
-0.42
-2.80
-6.92
-14.10
-24.60
-37.74
-52.73
-68.58
-83.82
-96.88
-93.66
-68.60
-27.63
16.77
55.91
87.87
113.48
132.36
142.65
142.97
132.34
113.46
91.56
72.33
58.90
51.12
46.82
44.23
42.77
41.23
38.99
36.14
33.05
29.59
26.41
23.44
20.94
19.26
17.49
14.60
10.19
4.89
-0.05
-3.35
-4.19
-2.28
2.06
7.73
13.64
19.19
24.17
28.36
31.34
32.48
31.41
28.24
23.65
18.46
13.13
7.66
1.94
-3.95
-9.58
-14.22
-17.14
-17.32
-14.64
-10.41
-7.01
-6.36
-9.08
-14.37
-20.61
-26.16
-28.92
-28.21
-25.48
-23.68
-25.15
-30.45
-38.18
-45.59
-49.25
-44.01
-25.60
7.08
51.08
100.48
147.68
185.12
207.02
201.67
165.83
109.65
51.04
3.44
-29.17
-48.74
-57.55
-56.37
-45.47
-25.12
1.40
27.42
45.56
52.85
49.65
39.68
27.99
18.66
14.89
17.34
23.78
30.36
33.72
32.24
26.48
18.48
10.62
4.90
2.84
3.95
6.00
6.07
1.82
-7.33
-20.08
-33.98
-46.02
-54.37
-58.75
-59.44
-57.27
-52.81
-45.93
-36.39
-24.75
-12.42
-2.06
4.12
6.48
5.75
2.76
-1.40
-5.62
-8.98
-10.84
-11.86
-12.52
-11.32
-9.42
-10.64
-18.97
-36.58
-62.62
-93.19
-124.03
-150.40
-165.94
-169.80
-166.17
-160.25
-154.86
-149.27
-131.87
-97.88
-59.12
-15.79
34.86
89.96
144.17
191.50
226.30
244.09
241.48
210.19
157.07
98.50
50.32
18.43
-1.48
-17.17
-33.19
-49.41
-62.17
-61.47
-42.11
-5.87
40.76
89.87
134.65
170.42
194.41
199.86
185.95
153.59
106.03
50.04
-4.66
-48.28
-74.37
-82.21
-75.84
-59.60
-39.20
-20.44
-7.72
-3.37
-7.39
-17.72
-30.94
-43.24
-50.53
-51.88
-49.37
-46.25
-44.27
-42.32
-37.20
-26.08
-8.82
12.03
31.45
44.55
48.94
45.58
37.67
28.72
20.79
14.06
7.75
0.36
-8.77
-19.07
-29.15
-37.61
-43.43
-46.24
-45.98
-42.89
-38.73
-35.17
-32.90
-31.55
-30.29
-28.26
-25.84
-23.96
-23.92
-28.60
-39.45
-55.45
-73.66
-90.98
-105.08
-115.86
-123.94
-130.11
-137.35
-147.55
-160.60
-174.89
-189.01
-201.99
-214.65
-227.54
-226.52
-204.03
-163.13
-114.72
-67.93
-30.09
3.18
34.24
64.02
93.41
118.39
135.94
145.30
147.75
145.31
140.55
134.78
129.43
125.49
121.27
115.09
106.36
95.87
84.90
74.93
66.07
58.17
50.98
43.04
33.69
23.51
14.10
7.12
3.73
3.53
5.42
7.83
8.69
6.80
2.26
-3.66
-9.27
-13.15
-14.81
-14.41
-12.33
-9.15
-4.92
0.86
8.98
20.05
34.09
50.38
67.71
84.81
100.69
114.87
127.27
137.80
146.04
150.97
151.34
146.21
135.64
120.91
104.09
87.31
71.99
58.62
47.17
37.65
30.44
25.93
23.78
22.25
18.57
10.04
-4.50
-23.89
-45.12
-64.91
-81.43
-95.06
-107.79
-121.49
-136.41
-150.42
-159.80
-160.85
-151.61
-132.75
-107.15
-78.80
-51.32
-27.03
-6.49
10.91
26.20
39.97
51.91
61.07
66.57
68.46
68.02
67.42
68.52
71.77
75.70
77.58
74.82
66.34
53.30
38.52
25.27
15.71
10.20
7.52
5.81
3.66
0.57
-3.08
-6.64
-9.60
-11.91
-13.89
-16.03
-18.58
-21.36
-23.81
-25.14
-24.55
-21.52
-16.06
-8.91
-1.43
5.13
10.12
13.49
15.65
17.19
18.64
20.12
21.33
21.48
20.26
17.95
14.98
11.49
7.56
3.34
-0.93
-5.03
-9.49
-14.47
-19.61
-24.66
-29.62
-34.29
-38.28
-41.50
-44.48
-49.16
-56.53
-65.71
-74.40
-79.56
-78.02
-67.63
-48.31
-18.89
13.93
40.09
54.80
60.69
62.99
64.86
65.81
62.60
52.11
32.72
7.02
-19.14
-40.02
-52.75
-57.56
-56.61
-53.81
-49.27
-42.83
-33.49
-20.65
-5.37
9.60
21.38
28.39
30.75
30.19
28.26
26.41
25.46
25.08
23.98
20.77
15.82
10.12
5.52
3.49
4.95
9.78
16.66
23.54
28.69
31.38
32.05
32.12
32.87
35.06
38.73
43.08
46.59
47.48
44.17
35.87
22.91
6.63
-11.03
-28.05
-42.90
-54.91
-64.22
-71.49
-77.25
-81.96
-86.15
-90.59
-96.16
-103.70
-113.92
-127.26
-143.72
-162.05
-180.80
-198.95
-216.28
-232.84
-248.43
-262.34
-273.24
-279.18
-276.46
-262.25
-235.99
-199.76
-156.76
-109.88
-61.33
-12.90
33.51
78.19
120.68
159.06
190.84
215.12
233.33
247.81
259.97
269.53
278.64
289.16
302.00
316.99
334.09
353.32
373.59
392.05
384.22
335.63
251.18
152.74
62.05
-9.75
-60.99
-94.67
-115.14
-126.43
-128.44
-121.29
-107.26
-91.03
-76.98
-67.30
-62.08
-60.37
-61.18
-60.99
-57.96
-52.20
-45.81
-40.77
-37.69
-36.12
-35.43
-35.36
-34.58
-32.44
-29.01
-25.06
-20.83
-15.72
-8.93
-0.41
8.97
18.77
27.15
32.81
35.00
34.08
31.36
28.36
25.93
24.03
22.37
20.45
18.23
15.84
13.50
11.24
8.53
4.43
-2.07
-11.41
-23.11
-35.45
-46.14
-53.11
-55.35
-53.35
-48.94
-44.67
-42.83
-44.60
-49.41
-55.13
-58.67
-57.17
-48.97
-34.33
-15.32
4.97
23.48
38.29
48.88
55.86
60.13
62.30
62.32
59.78
54.42
46.61
37.44
28.36
20.63
14.86
10.79
7.52
4.06
-0.08
-4.72
-9.28
-13.23
-16.61
-20.07
-24.47
-30.27
-37.09
-43.67
-48.53
-50.69
-50.18
-47.99
-45.44
-43.55
-42.61
-42.27
-42.01
-41.60
-41.21
-41.17
-41.67
-42.49
-43.13
-43.25
-43.08
-43.54
-45.84
-50.73
-57.84
-65.41
-70.82
-71.51
-65.92
-54.09
-37.49
-18.51
0.28
16.69
29.16
36.81
39.39
37.30
31.62
23.97
16.19
9.73
5.29
2.69
1.11
-0.41
-2.57
-5.63
-9.44
-13.63
-17.72
-21.21
-23.62
-24.53
-23.72
-21.27
-17.68
-13.70
-10.13
-7.55
-6.12
-5.64
-5.70
-5.96
-6.18
-6.27
-6.11
-5.50
-4.18
-1.96
1.31
5.78
11.73
19.67
30.05
42.93
57.51
72.15
84.67
93.12
96.49
94.99
89.85
82.76
75.30
68.52
62.84
58.18
54.18
50.31
46.01
40.80
34.53
27.45
20.14
13.10
6.69
1.12
-3.22
-5.74
-5.77
-2.96
2.44
9.38
16.28
21.82
25.50
27.77
29.48
31.20
32.84
34.21
34.86
34.14
31.52
26.91
20.69
13.56
6.31
-0.31
-4.95
-7.00
-7.16
-7.09
-8.19
-10.92
-14.92
-19.50
-23.93
-26.20
-24.99
-20.66
-15.05
-10.15
-7.17
-6.31
-6.82
-6.95
-2.51
9.92
30.91
57.91
87.06
114.73
138.22
156.07
156.14
133.15
93.15
49.25
11.08
-18.62
-40.75
-56.13
-64.67
-66.10
-59.62
-47.04
-33.23
-24.34
-23.89
-31.23
-41.97
-51.79
-57.44
-56.59
-49.62
-39.49
-30.38
-24.95
-23.72
-25.49
-29.06
-33.75
-38.67
-43.27
-47.51
-52.16
-55.87
-57.58
-56.83
-54.54
-52.34
-51.23
-51.33
-49.29
-43.42
-34.73
-26.52
-21.57
-20.61
-22.05
-23.06
-21.36
-16.43
-10.46
-6.61
-7.54
-12.62
-19.72
-26.02
-29.29
-28.44
-23.23
-14.86
-4.74
6.38
19.05
34.21
52.18
71.80
91.13
108.53
122.11
130.65
134.12
133.79
131.02
126.84
121.67
111.93
98.07
83.57
72.19
65.14
61.08
57.43
52.66
46.09
38.46
31.65
26.58
22.72
18.38
13.34
6.90
-1.50
-12.02
-24.30
-37.30
-50.39
-63.48
-76.64
-89.58
-101.95
-113.51
-123.79
-132.17
-137.97
-141.24
-142.76
-143.49
-143.93
-144.21
-144.59
-144.75
-144.08
-141.90
-137.97
-132.50
-125.82
-118.14
-109.78
-101.91
-94.90
-88.30
-80.98
-71.79
-60.07
-45.70
-28.79
-4.78
26.46
61.25
93.18
116.18
126.32
122.64
107.65
87.23
69.28
57.73
54.35
58.29
66.76
75.96
82.54
85.04
84.15
80.01
73.30
65.33
57.07
49.40
43.11
38.96
36.83
37.09
39.69
42.73
43.98
40.32
31.17
19.07
7.42
0.59
2.21
13.70
33.65
57.11
76.43
84.91
79.88
62.51
37.19
9.49
-15.58
-35.09
-48.35
-56.25
-61.35
-63.62
-62.88
-59.26
-53.69
-47.64
-42.52
-39.00
-36.65
-34.17
-30.09
-24.51
-17.66
-11.94
-10.02
-13.59
-22.24
-33.05
-41.32
-41.79
-31.36
-10.55
16.26
42.85
63.61
75.73
79.97
79.42
78.24
79.27
83.19
87.18
88.01
83.35
72.96
59.70
44.28
26.81
7.16
-13.70
-33.99
-51.59
-64.98
-73.60
-77.84
-78.83
-77.36
-74.06
-69.64
-65.23
-61.99
-60.76
-61.63
-63.99
-67.13
-70.31
-73.38
-76.60
-80.23
-83.75
-85.84
-84.78
-79.40
-69.80
-57.17
-43.12
-28.96
-15.10
-1.18
13.33
28.58
44.01
58.62
71.67
83.03
93.09
102.24
110.45
117.11
121.21
121.87
118.77
112.27
103.28
92.91
82.09
71.46
61.36
51.89
42.92
34.17
25.36
16.36
7.30
-1.42
-9.29
-15.92
-21.19
-25.31
-28.67
-31.69
-34.64
-37.55
-40.17
-41.99
-42.32
-40.48
-36.03
-28.99
-19.96
-9.98
-0.20
8.39
15.28
20.45
24.24
27.14
29.58
31.70
33.40
34.43
34.57
33.96
33.26
33.51
35.83
40.91
48.62
57.95
67.14
73.93
75.75
70.11
55.24
31.04
-0.25
-34.32
-66.18
-92.26
-111.91
-127.48
-142.62
-159.73
-178.08
-193.68
-201.33
-197.36
-181.50
-156.83
-127.96
-98.89
-71.76
-47.09
-24.87
-5.56
9.94
20.94
27.91
32.66
37.68
44.88
54.62
65.53
75.17
81.20
82.33
78.54
70.86
60.91
50.28
40.20
31.27
23.48
16.41
9.50
2.37
-4.94
-12.05
-18.42
-23.67
-27.63
-30.28
-31.46
-30.81
-27.86
-22.33
-14.45
-4.90
5.39
15.69
25.64
35.18
44.21
52.27
58.56
62.22
62.86
60.95
57.73
54.66
52.83
52.47
52.86
52.75
50.93
46.80
40.52
32.84
24.71
16.80
9.45
2.75
-3.16
-7.90
-11.04
-12.43
-12.47
-12.03
-12.09
-13.16
-15.02
-16.81
-17.58
-16.83
-14.82
-12.36
-10.29
-9.05
-8.42
-7.76
-6.40
-3.95
-0.44
3.79
8.28
12.51
15.86
17.83
18.09
16.85
15.10
14.47
16.46
21.64
29.09
36.51
41.07
40.43
33.51
20.38
1.55
-22.66
-52.20
-86.48
-123.54
-159.73
-190.57
-211.83
-220.82
-216.76
-200.84
-175.52
-144.01
-109.90
-76.81
-47.95
-25.13
-8.19
4.99
16.99
29.75
43.56
57.05
67.77
72.87
70.58
61.09
47.00
31.45
17.56
7.37
1.58
-0.41
-0.45
0.20
1.87
6.72
15.79
28.29
41.23
50.87
54.23
49.62
37.94
22.31
7.39
-4.38
-12.73
-19.47
-27.08
-32.61
-34.24
-32.69
-35.12
-39.17
-40.30
-31.85
-11.15
21.25
61.79
104.01
141.00
167.21
180.09
178.42
163.00
136.09
101.23
61.65
18.33
-29.50
-83.28
-142.63
-205.77
-268.43
-324.88
-369.22
-397.43
-408.85
-405.36
-389.97
-364.92
-331.88
-291.83
-245.84
-195.69
-144.30
-95.64
-53.40
-19.75
5.62
24.64
40.06
54.16
67.76
79.84
88.37
91.69
89.65
84.10
77.92
73.82
73.24
75.96
80.47
84.86
87.67
88.37
87.41
85.80
84.57
84.31
85.02
86.22
87.33
87.98
88.16
88.24
88.80
90.38
93.22
96.99
100.81
103.36
103.46
100.64
95.54
89.75
85.18
83.08
83.48
85.37
87.53
89.46
91.70
95.37
101.22
109.00
117.63
125.84
132.78
137.85
140.08
137.62
128.17
110.20
84.13
52.70
19.95
-10.54
-36.78
-58.29
-74.71
-84.54
-84.95
-73.03
-47.78
-11.46
30.67
72.01
106.89
132.09
147.06
153.18
152.58
147.34
139.12
129.13
117.98
105.53
90.75
72.11
48.33
19.19
-14.02
-48.76
-81.97
-111.04
-134.31
-151.06
-160.98
-163.67
-158.56
-145.34
-124.65
-98.48
-69.81
-41.74
-16.32
5.92
25.53
42.94
57.31
66.34
67.29
58.74
41.92
20.77
0.47
-14.58
-22.30
-23.04
-18.56
-10.67
-0.37
11.91
25.61
39.43
51.54
60.18
64.41
64.44
61.19
55.79
49.02
41.27
32.59
23.02
12.73
2.26
-7.41
-14.89
-18.76
-18.15
-13.40
-6.28
0.19
2.66
-1.56
-13.94
-34.57
-62.33
-95.30
-130.72
-164.93
-193.66
-213.03
-221.02
-218.65
-209.79
-199.77
-193.21
-192.19
-195.71
-200.37
-201.69
-195.35
-177.91
-147.34
-103.56
-49.06
11.08
69.93
120.62
158.36
181.60
191.96
192.76
187.34
178.10
166.53
153.89
141.72
131.93
126.12
124.89
127.55
132.37
137.35
140.92
142.26
141.32
138.39
133.77
127.58
119.72
109.99
98.27
84.56
69.13
52.60
36.01
20.67
7.89
-1.51
-7.47
-10.73
-12.50
-13.96
-15.78
-18.06
-20.33
-22.05
-22.82
-22.63
-21.98
-21.58
-22.09
-23.82
-26.57
-29.84
-33.19
-36.70
-41.09
-47.42
-56.23
-66.97
-77.95
-86.89
-91.99
-92.74
-90.11
-85.99
-82.05
-78.65
-74.52
-67.42
-55.50
-38.30
-17.30
4.65
24.27
39.25
49.43
56.69
64.01
73.96
87.54
103.60
119.18
129.90
131.67
122.40
102.75
75.66
45.40
16.51
-7.16
-23.34
-32.65
-37.72
-41.61
-46.34
-52.64
-60.19
-67.81
-74.01
-77.59
-79.20
-80.69
-84.01
-90.40
-100.57
-114.65
-131.50
-148.50
-156.15
-145.96
-117.67
-80.36
-44.87
-17.77
-0.90
7.10
8.70
6.34
1.10
-6.22
-14.18
-20.23
-21.61
-17.05
-6.63
8.30
25.83
43.05
57.12
66.40
71.00
72.17
69.63
63.85
55.71
46.37
36.60
27.04
18.54
12.14
8.49
7.36
8.19
10.09
12.20
13.56
13.06
9.73
2.92
-7.33
-20.12
-33.25
-44.19
-50.90
-52.73
-50.32
-44.79
-36.92
-26.89
-14.93
-1.85
10.28
18.78
21.43
17.56
8.50
-3.00
-13.91
-21.91
-25.76
-25.22
-20.69
-13.05
-3.63
5.82
13.52
18.16
19.39
17.79
14.54
10.85
7.61
5.32
4.25
4.60
6.35
9.07
11.79
13.08
11.67
7.12
0.14
-7.55
-14.10
-18.35
-20.41
-21.37
-22.55
-24.52
-26.68
-27.58
-25.71
-20.37
-12.02
-1.95
8.35
17.93
26.61
34.78
42.89
51.02
58.69
65.04
69.25
70.77
69.55
65.87
60.14
52.78
44.35
35.70
28.05
22.76
20.64
21.48
23.79
25.35
24.19
19.51
11.97
3.19
-5.30
-12.99
-20.67
-29.96
-42.40
-58.77
-78.81
-101.45
-125.25
-148.57
-169.57
-186.11
-195.99
-197.54
-190.57
-176.73
-159.47
-143.10
-131.47
-126.91
-129.66
-138.41
-151.08
-165.85
-181.54
-197.45
-212.72
-225.89
-234.74
-236.67
-229.41
-211.51
-182.81
-144.53
-99.22
-50.44
-2.19
41.97
79.74
110.59
135.57
156.40
174.35
189.61
201.34
208.53
210.82
209.03
204.72
199.43
193.92
187.97
180.85
172.02
161.64
150.53
139.80
130.20
121.86
114.39
107.27
100.33
93.94
88.82
85.53
84.04
83.54
82.76
80.46
76.03
69.73
62.55
55.86
50.83
48.14
47.77
49.12
51.23
53.07
53.83
53.15
51.17
48.30
44.99
41.34
37.09
31.69
24.67
15.96
6.10
-3.78
-12.26
-18.01
-20.12
-18.15
-12.26
-3.15
8.02
19.74
30.44
38.67
43.41
44.31
41.85
37.13
31.48
26.00
21.24
17.23
13.38
8.73
2.44
-5.68
-15.05
-24.66
-33.55
-41.19
-47.28
-52.02
-56.21
-60.49
-64.88
-68.76
-71.39
-72.33
-71.70
-69.43
-65.81
-61.83
-58.58
-56.71
-56.25
-56.70
-57.03
-55.72
-50.29
-38.74
-21.26
0.20
22.71
43.15
58.86
68.22
66.14
51.37
28.36
3.75
-17.43
-32.62
-40.68
-41.50
-36.62
-29.46
-24.43
-24.08
-30.30
-42.37
-56.89
-69.23
-75.75
-75.20
-68.87
-59.11
-46.20
-33.19
-23.10
-17.68
-16.99
-19.59
-23.16
-25.21
-23.58
-17.46
-8.29
1.73
10.58
17.06
20.81
22.01
21.13
18.94
16.35
13.87
12.25
12.33
14.78
19.79
27.03
35.62
44.40
52.29
58.44
62.80
65.71
67.53
68.12
66.78
62.60
54.66
42.91
28.27
12.38
-3.37
-18.21
-31.74
-43.24
-51.20
-54.26
-51.33
-42.11
-27.85
-11.50
3.21
13.48
18.61
20.00
19.10
17.38
15.99
15.56
15.89
16.14
15.64
14.02
11.10
5.24
-5.06
-19.97
-38.36
-58.92
-80.73
-102.91
-124.56
-135.93
-130.53
-110.33
-83.29
-55.76
-29.71
-4.81
19.25
40.92
56.55
60.57
49.54
25.15
-6.05
-35.83
-59.01
-73.24
-78.89
-77.95
-73.24
-66.47
-57.76
-46.85
-34.95
-24.79
-19.02
-18.72
-22.77
-29.14
-35.52
-39.99
-41.72
-41.33
-40.32
-39.88
-40.35
-41.16
-41.41
-40.12
-36.45
-30.17
-21.98
-13.35
-5.69
0.36
5.48
11.48
20.69
34.71
53.23
73.64
91.80
103.59
106.48
100.22
86.62
68.70
49.68
32.44
19.26
11.80
10.88
16.14
25.96
37.66
48.33
55.73
58.97
58.52
55.91
52.91
50.85
50.27
50.82
51.59
51.50
49.89
46.72
42.73
39.01
36.42
35.02
33.79
31.17
25.81
17.52
7.58
-1.52
-7.14
-7.57
-2.73
5.74
15.20
22.96
27.18
27.25
23.84
18.44
13.05
9.84
10.88
17.72
30.85
49.36
70.94
92.63
111.97
127.78
140.22
149.75
156.07
157.52
151.79
137.32
114.63
86.54
57.18
30.20
7.50
-10.97
-26.30
-39.43
-50.41
-58.62
-63.41
-64.93
-64.47
-64.07
-65.71
-70.67
-79.07
-89.99
-101.79
-112.66
-121.34
-127.52
-131.82
-135.31
-138.86
-142.67
-146.13
-148.21
-147.75
-144.25
-138.07
-130.17
-121.48
-112.42
-102.90
-92.55
-80.99
-67.21
-50.39
-30.40
-8.18
14.53
35.31
51.25
59.45
57.58
45.90
26.08
0.40
-28.67
-57.66
-82.09
-97.49
-101.01
-92.61
-73.29
-46.74
-19.05
3.00
15.27
18.00
15.04
11.66
12.55
23.38
47.46
84.45
130.42
180.49
230.71
278.15
320.58
339.06
320.73
268.67
201.04
135.90
82.66
43.50
17.04
0.53
-9.24
-11.89
-8.02
1.21
12.90
24.23
33.65
40.56
44.63
45.52
45.04
43.18
39.56
32.60
21.50
7.33
-7.57
-21.09
-32.38
-40.76
-46.72
-51.40
-56.45
-62.60
-69.36
-75.85
-81.59
-86.80
-91.25
-94.67
-96.59
-97.06
-96.25
-94.37
-91.60
-88.04
-83.61
-77.84
-70.36
-61.08
-50.63
-40.02
-30.33
-22.28
-16.05
-11.24
-7.04
-2.71
2.14
7.30
12.08
15.76
18.00
18.97
19.11
18.80
18.03
16.45
13.68
9.77
5.33
1.42
-0.93
-1.26
0.11
2.20
3.88
4.31
3.23
0.89
-2.18
-5.47
-8.65
-11.56
-14.22
-16.79
-19.60
-23.10
-27.58
-32.97
-38.59
-43.27
-45.77
-45.25
-41.69
-35.83
-28.84
-21.77
-15.22
-9.31
-3.91
1.07
5.49
9.11
11.74
13.35
14.12
14.24
13.79
12.72
10.92
8.40
5.40
2.45
0.21
-0.78
-0.26
1.64
4.51
7.80
11.04
13.84
15.95
17.18
17.40
16.50
14.52
11.60
8.04
4.17
0.24
-3.64
-7.57
-11.74
-16.34
-21.45
-27.02
-32.90
-38.77
-44.25
-48.80
-51.89
-53.02
-51.96
-48.80
-43.94
-38.01
-31.62
-25.24
-19.11
-13.33
-7.91
-2.98
1.28
4.72
7.40
9.74
12.37
15.90
20.43
25.40
29.56
31.52
30.32
25.97
19.48
12.46
6.55
2.89
1.85
3.14
5.99
9.38
12.30
13.93
13.96
12.74
11.30
11.03
13.05
17.64
23.99
30.38
34.80
35.57
31.78
23.58
12.20
-0.52
-12.67
-22.85
-30.49
-35.72
-39.10
-41.16
-41.86
-40.38
-35.46
-26.24
-12.81
3.48
20.28
34.81
44.37
47.33
43.80
35.77
26.31
18.58
14.65
14.83
17.55
19.83
18.91
13.73
5.28
-4.17
-12.14
-16.96
-17.97
-13.47
-2.82
12.07
27.15
38.21
41.86
36.43
22.75
4.83
-11.37
-20.96
-22.46
-18.63
-14.76
-15.88
-23.45
-35.00
-45.67
-51.11
-49.81
-43.19
-34.05
-24.58
-15.34
-5.35
6.30
19.21
31.43
40.11
43.15
40.35
33.72
24.70
15.73
8.36
2.75
-2.15
-7.85
-15.49
-25.13
-35.59
-44.84
-50.46
-50.88
-45.86
-36.55
-25.17
-14.22
-5.74
-0.80
0.52
-1.01
-4.45
-8.93
-13.68
-17.95
-21.13
-22.90
-23.42
-23.33
-23.25
-23.59
-24.07
-23.88
-21.96
-17.63
-10.97
-2.88
5.32
12.46
17.84
21.40
23.50
24.59
24.95
24.58
23.33
21.10
17.99
14.33
10.61
7.33
4.86
3.33
2.72
2.91
3.79
5.26
7.24
9.58
12.10
14.57
16.75
18.44
19.53
20.03
20.05
19.81
19.52
19.34
19.29
19.20
18.85
17.99
16.53
14.58
12.43
10.38
8.69
7.42
6.50
5.83
5.37
5.14
5.25
5.73
6.55
7.53
8.47
9.22
9.70
9.94
10.05
10.14
10.31
10.60
10.96
11.25
11.29
10.88
9.94
8.55
6.91
5.31
3.98
3.03
2.39
1.82
1.01
-0.29
-2.16
-4.52
-7.15
-9.76
-12.09
-14.01
-15.50
-16.70
-17.84
-19.14
-20.79
-22.83
-25.13
-27.41
-29.30
-30.42
-30.57
-29.67
-27.85
-25.32
-22.35
-19.17
-15.98
-12.96
-10.24
-7.93
-6.11
-4.90
-4.45
-4.95
-6.57
-9.32
-13.03
-17.28
-21.57
-25.39
-28.38
-30.45
-31.78
-32.77
-33.91
-35.65
-38.21
-41.50
-45.14
-48.56
-51.31
-53.24
-54.60
-55.93
-57.80
-60.43
-63.52
-66.20
-67.32
-65.78
-60.88
-52.57
-41.39
-28.31
-14.46
-0.90
11.63
22.72
32.34
40.80
48.60
56.31
64.40
73.11
82.39
91.94
101.33
110.23
118.58
126.68
135.07
144.28
154.59
165.80
177.23
188.00
197.29
204.68
210.14
213.99
216.58
217.94
217.61
214.65
207.84
196.12
179.15
157.49
132.59
106.25
79.82
53.59
26.75
-2.03
-33.73
-68.28
-104.54
-140.61
-174.31
-203.13
-224.03
-233.51
-228.62
-208.38
-175.16
-134.63
-94.25
-60.80
-38.06
-26.01
-21.72
-21.17
-21.10
-19.78
-17.00
-13.33
-9.58
-6.38
-4.13
-3.01
-2.91
-3.56
-4.55
-5.31
-5.17
-3.34
0.76
7.08
14.54
21.08
24.26
22.22
14.56
2.57
-11.30
-24.40
-34.86
-42.09
-46.52
-49.27
-51.61
-54.52
-58.43
-63.10
-67.80
-71.63
-73.92
-74.57
-74.26
-74.19
-75.33
-77.68
-79.91
-79.85
-75.50
-66.07
-52.16
-35.76
-19.39
-5.08
6.33
15.13
22.02
27.44
31.24
33.50
34.13
32.99
30.06
25.83
21.19
16.83
12.94
9.19
6.54
5.82
7.26
10.46
15.08
21.03
28.14
35.97
44.02
54.15
67.67
83.92
100.10
113.07
120.80
122.75
119.88
114.38
111.88
117.00
130.92
151.10
173.60
194.91
212.63
225.65
215.73
174.95
111.18
42.85
-15.64
-59.81
-91.40
-113.48
-128.44
-138.25
-142.19
-141.18
-137.51
-133.91
-130.88
-126.38
-117.50
-102.66
-82.09
-58.25
-35.63
-18.83
-11.00
-12.36
-21.18
-35.06
-51.84
-69.68
-85.42
-95.94
-99.39
-96.95
-89.32
-77.77
-63.97
-49.69
-36.52
-25.07
-15.47
-7.90
-3.50
-2.55
-4.20
-6.56
-7.37
-5.15
0.23
7.40
14.23
18.80
20.65
20.55
19.71
18.78
17.66
15.42
11.87
8.10
6.19
8.34
15.77
28.11
43.45
58.79
70.84
76.84
75.12
65.66
50.02
31.26
13.02
-1.69
-11.38
-16.38
-18.24
-18.98
-18.78
-18.07
-17.11
-16.27
-16.30
-18.15
-22.39
-28.66
-35.61
-41.43
-44.79
-45.16
-43.13
-40.08
-37.52
-36.46
-37.09
-38.85
-40.72
-41.82
-41.36
-38.91
-34.26
-27.47
-18.74
-8.45
2.81
14.39
25.48
35.52
44.23
51.52
57.41
61.83
64.59
65.46
64.32
61.28
56.89
51.90
47.00
42.57
38.56
34.65
30.44
25.72
20.55
15.20
9.96
5.07
0.62
-3.37
-6.87
-9.89
-12.47
-14.81
-17.24
-20.16
-23.75
-27.92
-32.12
-35.47
-37.04
-36.06
-32.23
-25.73
-17.19
-7.49
2.35
11.40
18.87
24.22
27.22
27.89
26.44
23.10
17.98
11.01
2.19
-8.04
-18.62
-28.00
-34.60
-37.42
-36.47
-32.79
-28.06
-24.03
-22.00
-22.55
-25.48
-30.07
-35.21
-39.78
-42.99
-44.68
-45.57
-47.06
-50.67
-57.15
-65.79
-74.25
-79.18
-77.41
-67.23
-49.20
-25.97
-1.28
21.37
39.77
53.34
62.52
68.03
70.14
68.59
63.06
53.76
41.82
29.03
17.37
8.45
3.19
1.87
4.38
10.21
18.45
27.68
36.13
42.14
44.75
44.15
41.69
39.31
38.75
40.84
45.27
50.86
56.07
59.66
61.07
60.60
59.15
57.94
58.08
60.33
65.01
72.01
80.93
91.04
101.33
110.48
116.93
118.85
114.43
102.51
83.44
59.76
36.12
18.18
10.69
15.57
30.71
50.24
66.31
71.42
60.53
32.23
-11.18
-64.40
-120.33
-171.44
-211.19
-235.26
-242.40
-234.38
-215.31
-190.36
-164.52
-141.72
-124.38
-113.21
-107.29
-104.28
-100.89
-93.74
-80.43
-60.51
-35.90
-10.48
11.16
25.27
30.22
27.10
19.21
10.86
5.98
6.83
13.68
24.88
37.60
48.65
55.36
56.16
50.93
40.96
28.62
16.73
7.88
3.78
4.84
9.92
16.74
22.54
25.14
23.92
20.06
15.95
13.94
15.06
18.52
22.18
23.78
22.19
17.81
12.07
6.39
1.28
-3.78
-9.78
-17.36
-26.35
-35.86
-44.83
-52.44
-58.25
-62.07
-63.82
-63.56
-61.72
-59.19
-57.12
-56.29
-56.61
-56.98
-55.80
-51.98
-45.69
-38.44
-32.30
-28.84
-28.27
-29.44
-30.63
-30.53
-28.94
-26.69
-25.00
-24.68
-25.61
-26.83
-27.06
-25.35
-21.51
-16.07
-9.87
-3.56
2.89
10.12
19.01
29.88
42.02
53.57
62.21
66.08
64.62
58.94
51.32
44.27
39.49
37.31
36.81
36.36
34.52
30.58
24.77
17.96
11.21
5.33
0.71
-2.62
-4.81
-5.86
-5.61
-3.70
0.10
5.66
12.27
18.60
23.08
24.27
21.44
14.80
5.52
-4.71
-14.27
-21.93
-27.02
-29.27
-28.63
-25.31
-19.87
-13.31
-6.82
-1.37
2.76
5.99
9.04
12.33
15.55
17.73
17.82
15.30
10.58
4.62
-1.68
-8.07
-15.04
-23.27
-33.00
-43.66
-53.90
-62.24
-67.64
-69.88
-69.40
-66.86
-62.73
-57.04
-49.46
-39.52
-26.90
-11.66
5.53
23.25
39.64
52.79
61.40
65.17
64.65
60.89
54.95
47.71
40.04
33.00
27.85
25.64
26.67
30.25
34.97
39.33
42.34
43.68
43.37
41.44
37.87
32.90
27.38
22.71
20.33
20.99
24.35
29.13
33.70
36.65
37.15
34.82
29.56
21.51
11.10
-0.84
-13.25
-25.29
-36.72
-48.04
-59.92
-72.59
-85.20
-95.91
-102.53
-103.48
-98.56
-89.14
-77.43
-65.42
-54.36
-44.46
-34.94
-24.77
-13.36
-0.97
11.27
22.17
31.16
38.30
44.16
49.49
54.83
60.18
65.20
69.28
72.25
74.89
77.66
80.54
83.20
85.15
86.02
85.67
83.43
79.26
74.60
69.70
63.74
55.78
44.83
30.02
10.94
-13.65
-42.84
-71.50
-96.09
-115.24
-128.70
-137.62
-144.08
-150.18
-159.68
-173.32
-185.88
-195.17
-202.15
-207.81
-212.53
-215.67
-215.82
-215.08
-214.43
-209.67
-201.36
-192.60
-184.04
-173.90
-159.43
-116.07
-39.14
32.96
90.77
139.67
178.39
205.04
218.17
217.35
204.13
179.33
147.53
119.75
101.29
92.37
92.19
99.40
113.17
129.89
142.01
145.06
142.70
137.51
130.32
121.24
109.25
93.12
70.36
39.35
1.99
-35.10
-67.07
-90.73
-104.54
-101.87
-82.60
-52.49
-20.70
5.56
24.52
37.22
46.84
57.32
69.80
82.67
93.36
99.12
98.19
90.92
74.54
53.19
34.28
24.53
26.12
35.64
46.13
49.97
42.18
21.58
-8.80
-44.28
-79.72
-110.23
-128.69
-129.49
-110.23
-72.75
-23.18
30.09
76.39
103.15
105.31
87.96
60.08
28.69
-2.64
-31.92
-56.29
-72.23
-76.70
-68.72
-51.28
-31.46
-16.77
-11.40
-14.80
-22.63
-29.94
-33.85
-33.54
-30.40
-27.21
-25.87
-26.43
-27.52
-27.53
-25.69
-22.26
-17.98
-13.70
-10.42
-7.97
-5.04
0.38
9.95
24.34
43.33
64.81
86.76
104.30
112.99
109.89
94.96
71.28
43.99
18.78
0.06
-10.56
-14.91
-16.82
-20.23
-27.28
-37.67
-48.87
-57.36
-60.29
-56.43
-46.53
-32.27
-15.69
1.81
19.28
35.72
50.20
61.88
69.87
73.05
70.70
62.97
51.24
37.63
24.34
12.80
2.95
-6.54
-17.41
-30.45
-44.59
-55.75
-59.64
-54.03
-40.19
-22.45
-6.13
5.18
10.57
10.93
8.15
3.69
-1.73
-7.73
-13.71
-18.56
-21.05
-20.48
-17.42
-13.36
-10.62
-11.27
-16.27
-25.11
-36.07
-46.83
-55.20
-59.43
-58.45
-52.14
-41.29
-27.55
-12.95
0.59
11.85
20.55
27.16
32.55
37.37
41.74
45.23
47.10
46.74
43.99
39.27
33.44
27.60
22.69
19.37
17.75
17.54
18.09
18.65
18.59
17.62
15.77
13.35
10.76
8.32
6.27
4.63
3.20
1.54
-0.91
-4.51
-9.09
-13.74
-17.02
-17.47
-14.25
-7.60
1.19
10.40
18.62
25.41
31.29
37.25
43.95
51.14
57.63
61.80
62.45
59.39
53.50
46.28
39.07
32.56
26.64
20.73
14.25
6.87
-1.43
-10.51
-20.17
-30.07
-39.77
-48.69
-56.36
-62.56
-67.49
-71.64
-75.49
-79.27
-82.76
-85.37
-86.30
-84.78
-80.25
-72.48
-61.65
-48.29
-33.26
-17.54
-2.19
11.88
23.97
33.62
40.71
45.39
48.13
49.55
50.23
50.58
50.67
50.29
49.09
46.84
43.56
39.59
35.37
31.21
27.08
22.64
17.43
11.08
3.36
-5.79
-16.23
-27.63
-39.41
-50.68
-60.27
-66.90
-69.66
-68.43
-63.94
-57.22
-49.10
-40.04
-30.21
-19.60
-8.32
3.13
13.71
22.29
28.43
32.65
35.91
39.04
42.42
45.94
48.89
49.98
47.78
41.43
31.14
17.87
3.08
-10.86
-20.82
-22.30
-11.77
9.61
35.44
57.72
69.52
66.30
47.19
15.15
-24.04
-64.19
-101.06
-130.71
-149.24
-154.30
-146.03
-125.84
-96.23
-61.01
-24.50
10.77
41.60
66.96
86.52
98.65
101.88
94.88
77.22
50.78
20.57
-6.17
-21.06
-19.08
-1.67
25.85
55.69
79.35
90.13
84.93
59.67
17.80
-26.60
-68.96
-109.68
-148.80
-186.44
-222.36
-255.88
-286.19
-311.06
-328.07
-335.63
-330.82
-311.04
-276.21
-229.18
-174.68
-117.58
-60.44
-3.97
51.42
106.27
160.44
211.72
256.15
289.04
306.33
306.55
291.23
264.00
230.32
194.99
160.26
125.81
90.37
53.85
18.64
-11.34
-32.82
-44.45
-47.52
-45.30
-41.33
-38.01
-36.15
-35.25
-34.32
-32.53
-29.17
-23.90
-17.08
-9.80
-3.50
0.71
2.89
4.43
7.31
13.03
21.58
31.33
39.77
44.80
45.57
42.65
37.53
31.70
26.15
21.38
17.68
15.48
15.28
17.44
21.81
27.68
33.98
39.77
44.62
48.76
52.93
57.95
64.31
71.78
79.47
86.05
90.11
90.56
86.89
79.38
69.04
57.60
47.12
39.55
36.27
37.66
43.02
50.87
59.53
67.65
74.52
79.97
84.13
87.07
88.65
88.51
86.28
81.72
74.92
66.42
57.13
48.22
40.77
35.37
31.85
29.27
26.40
22.18
16.17
8.49
-0.25
-9.34
-18.27
-26.69
-34.33
-40.90
-46.07
-49.56
-51.49
-52.13
-51.85
-51.08
-50.18
-49.43
-48.97
-48.77
-48.54
-48.17
-47.57
-46.99
-47.00
-47.79
-48.87
-48.97
-47.28
-42.63
-35.57
-28.37
-23.68
-23.11
-26.66
-33.55
-42.91
-54.08
-66.07
-78.93
-90.92
-99.72
-103.51
-101.16
-92.74
-79.42
-63.18
-46.29
-31.07
-19.08
-9.58
-2.48
3.03
8.11
13.84
20.51
27.35
32.68
34.67
32.05
24.53
13.38
0.78
-11.12
-20.94
-28.17
-32.75
-34.21
-31.43
-23.43
-9.90
8.00
27.64
45.71
59.39
67.15
68.98
65.86
58.97
49.52
38.41
26.47
14.70
4.53
-2.42
-4.81
-2.20
4.45
12.95
20.54
24.95
25.18
21.93
17.06
12.67
10.26
9.98
10.93
11.53
10.21
6.12
-0.38
-7.77
-14.05
-17.86
-19.35
-20.12
-22.15
-26.38
-31.81
-36.05
-36.79
-33.55
-28.16
-23.75
-22.63
-24.79
-27.83
-28.56
-25.17
-18.33
-10.77
-5.56
-4.55
-7.54
-12.76
-18.00
-21.56
-22.87
-22.26
-20.60
-18.79
-17.54
-17.19
-17.59
-18.18
-18.38
-17.82
-16.58
-15.09
-14.05
-14.15
-15.63
-18.17
-21.20
-24.42
-28.11
-32.90
-39.16
-46.97
-56.27
-66.70
-77.55
-87.98
-97.19
-104.57
-109.58
-111.59
-110.43
-106.62
-100.67
-92.59
-82.30
-70.51
-58.87
-49.00
-40.46
-30.58
-15.57
7.90
40.46
78.46
114.66
140.82
148.62
137.65
116.50
95.30
79.16
67.88
59.46
53.39
51.18
54.60
63.39
73.36
77.65
71.23
54.44
33.13
15.60
7.80
11.13
22.65
36.26
45.11
45.26
36.99
23.67
9.22
-3.98
-15.29
-24.66
-29.91
-30.26
-25.39
-15.71
-2.84
10.44
21.01
26.51
25.93
19.36
7.16
-9.42
-27.92
-45.04
-57.14
-61.70
-58.34
-48.98
-37.05
-26.35
-19.28
-16.26
-15.72
-15.61
-14.75
-13.14
-11.64
-11.09
-11.69
-12.51
-11.82
-7.27
2.71
17.66
35.38
52.98
67.97
78.94
85.68
85.92
79.61
69.63
60.36
54.89
53.61
54.86
56.43
56.08
52.38
45.23
34.85
21.77
7.08
-7.27
-19.38
-26.95
-29.01
-26.01
-19.39
-11.78
-5.94
-3.79
-5.82
-11.43
-19.43
-29.34
-40.73
-51.14
-58.59
-61.77
-60.65
-56.67
-52.66
-48.16
-44.32
-41.26
-37.07
-29.46
-17.90
-4.66
6.38
11.43
8.90
-0.63
-14.14
-27.78
-38.59
-45.08
-48.34
-48.37
-45.44
-39.92
-32.73
-24.73
-16.84
-10.21
-5.83
-4.08
-4.32
-5.48
-6.25
-5.83
-3.91
-0.79
2.57
5.01
5.93
5.83
6.00
8.12
13.28
21.38
30.94
39.59
45.11
46.29
43.25
36.79
27.97
17.55
6.10
-5.69
-16.91
-26.48
-33.50
-37.67
-39.56
-40.48
-41.95
-45.00
-49.73
-55.08
-59.18
-59.82
-55.26
-44.87
-29.26
-10.07
10.51
29.92
45.55
55.34
58.42
55.82
50.27
45.32
43.63
45.73
49.73
52.54
52.04
48.50
44.43
42.75
44.75
48.87
51.63
49.19
39.35
22.50
1.56
-19.34
-36.51
-47.49
-51.40
-48.30
-39.77
-29.00
-19.80
-15.28
-16.77
-23.50
-33.16
-42.83
-48.99
-49.94
-46.35
-40.00
-32.31
-23.80
-14.58
-4.91
4.68
15.39
27.52
40.08
51.62
61.64
70.77
80.32
92.00
107.34
129.54
158.49
189.46
215.31
229.95
230.50
217.50
194.22
149.54
85.14
15.42
-42.13
-78.54
-94.54
-95.68
-88.76
-80.15
-74.80
-72.72
-72.71
-73.94
-75.86
-77.75
-78.57
-78.37
-77.05
-74.51
-68.58
-58.69
-46.80
-35.96
-28.23
-23.38
-19.26
-12.85
-1.85
15.58
38.87
62.80
82.29
94.15
98.30
97.27
94.79
93.81
95.70
99.14
100.75
97.64
89.22
77.86
67.71
62.59
63.84
69.87
76.75
80.12
77.54
69.22
57.49
45.17
34.11
24.48
15.21
4.94
-7.15
-20.95
-35.76
-50.52
-63.90
-74.17
-79.36
-77.86
-69.24
-54.92
-38.00
-22.45
-11.75
-7.81
-10.46
-18.02
-28.14
-38.82
-49.01
-58.53
-67.72
-76.99
-86.50
-96.08
-105.43
-114.33
-122.96
-131.78
-141.53
-152.62
-164.91
-177.48
-188.87
-197.65
-203.11
-205.77
-207.37
-210.18
-216.02
-225.17
-235.87
-244.47
-246.37
-237.26
-214.34
-177.10
-127.60
-70.13
-10.52
44.98
90.89
123.54
141.44
144.99
135.61
115.08
85.55
50.18
13.79
-17.38
-37.21
-41.60
-30.08
-5.78
26.06
60.18
93.00
122.91
149.53
172.44
190.67
202.85
207.96
205.99
198.18
186.61
173.36
159.80
146.14
131.84
116.34
99.55
82.40
66.61
54.12
46.20
42.82
42.21
42.15
40.92
37.89
33.58
28.94
24.65
20.66
16.11
9.32
-0.13
-10.91
-20.61
-26.66
-28.40
-27.75
-28.39
-33.93
-46.44
-64.04
-81.96
-95.46
-101.30
-99.37
-91.70
-80.40
-61.32
-32.95
2.31
38.43
67.79
86.91
94.31
89.47
73.62
49.14
16.57
-20.75
-58.96
-95.52
-127.14
-150.80
-163.61
-163.49
-150.24
-126.40
-95.60
-56.26
-13.90
24.16
53.69
75.58
94.78
111.77
122.75
123.70
113.24
89.70
57.69
24.04
-4.69
-23.80
-28.85
-18.78
2.07
25.09
40.63
44.90
37.18
19.78
-2.94
-27.12
-48.23
-63.67
-73.59
-80.61
-86.53
-91.64
-93.88
-90.07
-77.91
-57.22
-30.63
-2.39
23.02
42.69
55.00
59.74
57.70
50.33
39.76
27.99
16.90
8.01
2.67
1.52
4.60
11.31
20.46
30.80
40.63
48.46
53.64
56.72
58.81
61.06
63.86
66.66
68.54
68.09
64.19
56.71
46.64
35.51
24.51
14.02
1.55
-12.65
-25.85
-34.92
-38.69
-38.18
-35.61
-33.25
-32.43
-33.37
-34.33
-33.84
-31.43
-27.68
-23.82
-21.13
-20.44
-21.87
-24.77
-27.90
-30.37
-31.83
-32.44
-32.54
-32.43
-32.16
-31.60
-30.46
-28.30
-25.19
-21.74
-18.86
-17.23
-16.95
-17.32
-17.03
-14.72
-9.61
-2.17
5.97
12.76
16.79
17.88
17.07
15.93
15.69
16.79
18.81
21.07
23.18
25.36
28.22
32.25
37.46
43.25
48.71
52.90
55.18
55.25
53.10
48.99
43.30
36.49
29.03
21.27
13.47
5.82
-1.43
-7.91
-13.27
-17.32
-20.28
-22.78
-25.62
-29.42
-34.33
-40.02
-45.94
-51.65
-57.04
-62.21
-67.33
-72.42
-77.33
-81.78
-85.53
-88.30
-89.65
-88.87
-85.08
-77.56
-66.15
-51.44
-34.80
-18.00
-2.78
9.55
18.38
23.80
26.45
27.25
27.07
26.58
26.13
25.89
25.99
26.57
27.75
29.34
30.82
31.39
30.38
27.57
23.38
18.66
14.30
10.73
7.83
5.06
1.87
-2.04
-6.64
-11.71
-17.06
-22.62
-28.32
-33.92
-38.81
-42.17
-43.20
-41.40
-36.75
-29.70
-20.97
-11.37
-1.60
7.75
16.28
23.69
29.84
34.82
38.88
42.41
45.76
49.15
52.63
56.13
59.52
62.66
65.33
67.24
68.08
67.65
66.00
63.41
60.37
57.35
54.61
52.12
49.64
46.85
43.45
39.19
33.82
27.03
18.52
8.25
-3.34
-15.15
-25.62
-33.14
-36.57
-35.70
-31.34
-24.96
-18.04
-11.57
-5.73
-0.18
5.51
11.29
16.53
20.26
21.65
20.55
17.49
13.61
10.03
7.46
5.97
5.13
4.35
3.19
1.53
-0.51
-2.62
-4.47
-5.74
-6.10
-5.24
-3.03
0.35
4.32
7.90
10.12
10.31
8.51
5.49
2.56
1.15
2.35
6.64
13.86
23.31
34.08
45.19
55.81
65.34
73.47
80.20
85.76
90.43
94.32
97.20
98.42
97.11
92.42
83.87
71.57
56.29
39.25
21.88
5.47
-9.08
-21.42
-31.67
-40.22
-47.45
-53.48
-58.09
-60.84
-61.38
-59.76
-56.52
-52.64
-49.17
-47.03
-46.83
-48.93
-53.50
-60.48
-69.40
-79.25
-88.48
-95.31
-98.36
-97.02
-91.62
-83.17
-72.85
-61.57
-49.76
-37.54
-25.04
-12.61
-0.82
9.66
18.35
25.08
30.00
33.38
35.54
36.84
37.74
38.88
40.95
44.49
49.57
55.61
61.50
65.92
67.88
67.18
64.64
61.76
60.25
61.24
64.75
69.66
74.08
76.22
75.11
71.08
65.60
60.68
58.06
58.60
62.04
67.28
72.90
77.71
81.03
82.92
84.22
86.62
92.31
103.22
119.79
140.01
159.18
171.17
170.51
154.72
125.64
88.70
50.74
16.97
-11.01
-35.36
-59.98
-87.73
-118.43
-148.75
-174.19
-191.60
-200.90
-204.89
-207.41
-211.03
-215.90
-220.50
-223.38
-224.73
-226.45
-230.70
-238.19
-247.26
-254.61
-256.90
-252.39
-241.29
-224.97
-204.55
-179.91
-149.60
-111.48
-63.94
-7.04
56.78
122.75
184.41
235.09
269.46
284.95
282.51
266.15
241.82
215.69
192.80
176.47
168.47
169.59
180.02
198.99
224.00
250.38
271.75
281.72
276.03
254.19
219.64
178.11
135.07
93.67
54.09
14.60
-26.52
-69.43
-112.35
-152.27
-186.22
-212.30
-229.97
-239.72
-242.60
-239.66
-231.86
-220.17
-205.74
-189.89
-173.99
-159.07
-145.54
-133.17
-121.27
-109.09
-96.21
-82.79
-69.53
-57.36
-47.03
-38.77
-32.23
-26.77
-21.83
-17.22
-13.28
-10.66
-9.99
-11.55
-15.19
-20.34
-26.16
-31.74
-36.30
-39.31
-40.65
-40.71
-40.25
-40.20
-41.28
-43.55
-46.46
-48.93
-49.85
-48.53
-44.99
-39.90
-34.24
-28.85
-24.17
-20.25
-17.10
-14.95
-14.41
-16.23
-20.80
-27.79
-36.16
-44.49
-51.66
-57.33
-62.16
-67.51
-74.83
-85.17
-98.58
-114.01
-129.64
-143.35
-153.21
-157.85
-156.83
-150.69
-140.95
-129.55
-118.24
-108.03
-99.03
-90.46
-81.02
-69.50
-55.40
-39.48
-23.21
-8.09
5.16
16.97
28.63
41.46
55.59
69.38
79.19
81.72
75.81
63.21
47.79
33.85
24.11
18.62
14.97
8.71
-3.05
-20.09
-39.67
-58.53
-74.03
-84.46
-88.57
-85.19
-75.06
-58.80
-37.14
-12.25
11.85
31.03
43.14
48.77
50.05
46.39
36.98
22.35
4.88
-11.60
-22.18
-22.41
-10.05
27.02
85.62
148.78
198.10
225.87
234.45
230.80
219.96
203.88
183.80
159.30
131.98
106.02
86.17
74.30
68.95
66.36
62.86
56.36
46.25
34.56
25.09
20.37
19.86
21.15
21.60
19.44
15.30
9.36
2.47
-3.61
-7.09
-6.88
-1.99
7.25
19.87
33.67
45.61
53.58
56.62
54.10
45.56
31.58
14.39
-1.77
-12.10
-13.41
-5.38
9.30
26.07
40.55
50.04
53.83
52.90
48.66
42.34
34.87
27.09
19.94
14.37
11.45
10.58
10.80
10.95
10.00
7.42
3.17
-2.45
-8.98
-15.83
-22.56
-28.65
-33.71
-37.66
-40.57
-42.69
-44.35
-45.83
-47.26
-48.76
-50.24
-51.51
-52.25
-51.91
-49.82
-45.27
-37.91
-28.02
-16.46
-4.43
6.94
16.87
25.07
31.61
36.68
40.45
42.96
44.21
44.29
43.30
41.34
38.50
34.84
30.54
25.88
21.26
17.11
13.76
11.29
9.50
7.89
5.81
2.67
-1.89
-7.77
-14.41
-21.02
-26.89
-31.79
-36.10
-40.58
-45.88
-51.93
-57.72
-61.41
-60.92
-54.66
-42.13
-24.09
-2.29
21.12
44.12
65.16
83.23
97.71
108.18
114.35
116.08
113.58
107.54
99.15
89.98
81.55
74.91
70.25
66.92
63.74
59.73
54.63
49.10
44.28
41.00
39.02
37.03
33.20
26.21
16.06
4.16
-7.43
-16.98
-23.95
-28.95
-33.23
-37.83
-43.12
-48.88
-54.76
-60.72
-66.98
-73.49
-79.28
-82.11
-79.01
-67.41
-46.69
-19.07
10.68
36.71
54.37
61.89
60.94
55.49
49.85
46.90
47.41
50.95
57.30
67.41
82.93
104.41
129.49
152.32
165.14
161.37
138.80
101.03
56.36
14.48
-17.15
-35.87
-44.03
-47.09
-50.71
-58.12
-69.04
-80.23
-87.32
-86.90
-77.84
-61.51
-40.72
-18.50
2.99
22.61
39.80
53.91
63.84
68.21
65.82
56.23
40.09
19.21
-3.67
-25.26
-42.46
-53.23
-57.34
-56.43
-53.31
-50.72
-50.15
-51.42
-53.23
-54.36
-54.57
-54.81
-56.58
-60.87
-67.54
-75.35
-82.68
-88.42
-92.39
-95.09
-96.99
-97.79
-96.26
-90.76
-80.12
-64.34
-44.70
-23.09
-1.21
19.90
39.67
57.36
71.56
80.34
82.07
76.51
65.21
51.31
38.37
29.31
25.69
27.59
33.94
42.88
52.01
58.62
60.02
54.10
39.79
17.57
-10.57
-41.37
-70.76
-94.43
-108.42
-109.89
-98.22
-75.97
-49.12
-25.86
-13.92
-17.20
-33.55
-54.99
-70.96
-73.13
-59.43
-34.98
-9.60
6.84
8.56
-4.77
-29.36
-60.36
-94.33
-129.93
-166.66
-203.15
-235.98
-260.02
-270.03
-262.74
-238.53
-201.68
-159.27
-118.84
-86.14
-63.45
-49.69
-41.82
-36.83
-33.06
-30.38
-29.30
-29.99
-31.86
-33.97
-35.56
-36.44
-36.63
-35.90
-33.47
-28.25
-19.51
-7.22
7.98
25.28
44.02
63.75
83.88
103.38
120.89
135.24
145.83
152.52
154.90
151.70
140.88
120.78
91.84
57.73
24.97
1.01
-8.44
-1.46
19.80
50.42
84.73
118.01
147.04
169.69
184.44
190.03
185.91
172.62
152.09
127.17
100.98
76.17
54.63
37.68
26.37
21.57
23.75
32.43
45.81
60.85
73.98
82.16
83.89
79.43
70.42
58.84
46.21
33.07
19.26
4.43
-11.38
-27.68
-43.74
-58.80
-72.24
-83.43
-91.59
-95.89
-95.67
-90.85
-82.07
-70.63
-58.12
-46.19
-36.26
-29.43
-26.40
-27.29
-31.60
-38.27
-45.93
-53.21
-59.01
-62.44
-62.71
-59.00
-50.55
-36.98
-18.74
2.72
25.13
46.08
63.81
77.69
88.19
96.32
102.86
107.85
110.57
110.07
105.77
97.89
87.29
75.07
62.01
48.37
34.06
19.03
3.52
-11.78
-26.03
-38.51
-48.78
-56.82
-62.75
-66.82
-69.27
-70.37
-70.56
-70.49
-70.91
-72.37
-74.96
-78.10
-80.55
-80.78
-77.48
-70.03
-58.68
-44.50
-28.98
-13.60
0.48
12.59
22.43
30.00
35.46
39.10
41.32
42.61
43.44
44.12
44.76
45.23
45.41
45.24
44.83
44.40
44.07
43.70
42.86
40.98
37.61
32.60
26.24
19.12
11.92
5.15
-1.02
-6.80
-12.61
-18.93
-26.05
-33.99
-42.34
-50.37
-57.08
-61.40
-62.48
-59.90
-53.82
-44.99
-34.44
-23.24
-12.16
-1.64
8.10
16.82
24.17
29.69
33.14
34.66
34.83
34.45
34.25
34.56
35.23
35.82
35.89
35.27
34.03
32.36
30.35
27.88
24.76
20.83
16.15
10.93
5.32
-0.62
-7.06
-14.11
-21.67
-29.35
-36.55
-42.76
-47.70
-51.32
-53.62
-54.40
-53.23
-49.62
-43.35
-34.79
-24.83
-14.66
-5.33
2.59
9.11
14.62
19.54
24.08
28.16
31.47
33.74
34.79
34.63
33.46
31.59
29.39
27.27
25.64
24.79
24.82
25.62
26.92
28.39
29.70
30.57
30.75
29.95
27.93
24.58
20.05
14.80
9.40
4.42
0.12
-3.58
-7.11
-10.73
-14.20
-16.82
-17.69
-16.10
-11.75
-4.63
5.30
18.22
34.76
55.75
81.35
110.38
140.20
167.19
188.01
200.62
204.46
200.78
191.88
179.88
165.68
148.88
128.33
103.41
74.88
43.92
13.24
-13.65
-33.82
-46.19
-51.53
-52.45
-52.05
-53.69
-62.92
-83.60
-116.09
-156.94
-199.84
-236.21
-258.19
-259.91
-239.90
-205.89
-168.34
-136.31
-115.76
-109.68
-117.47
-137.80
-167.88
-204.64
-249.88
-302.53
-356.04
-400.39
-426.92
-430.64
-414.07
-383.95
-318.75
-217.80
-101.00
5.49
87.52
138.04
168.80
186.57
194.97
197.38
194.73
190.01
188.73
195.44
210.15
229.82
248.79
264.07
276.04
283.45
286.97
289.30
293.37
300.26
309.83
319.48
326.73
329.36
323.00
305.11
276.78
242.46
208.09
179.80
161.09
152.91
153.25
156.82
158.16
153.74
142.55
125.37
104.10
80.46
55.96
31.59
7.20
-17.89
-44.25
-72.05
-100.83
-129.33
-156.01
-179.57
-199.68
-217.30
-234.31
-252.45
-272.35
-292.98
-312.12
-327.27
-336.89
-341.10
-341.57
-340.72
-340.84
-343.52
-349.77
-360.02
-373.87
-389.47
-403.09
-409.66
-404.64
-386.21
-356.59
-321.38
-286.83
-256.75
-230.92
-205.90
-177.51
-143.41
-104.04
-61.51
-17.47
28.51
78.64
134.80
196.01
257.59
312.01
351.59
371.15
369.33
349.42
318.02
282.64
249.00
219.64
194.07
170.15
145.99
120.61
95.74
75.57
64.71
65.30
75.64
90.42
102.85
107.43
100.58
83.03
59.01
33.57
9.60
-12.29
-32.67
-51.75
-68.75
-84.46
-99.81
-115.35
-131.11
-146.70
-160.24
-168.65
-168.91
-148.69
-106.18
-52.35
-3.07
32.46
53.90
65.86
74.45
83.16
93.28
103.14
111.31
117.78
123.64
126.14
123.23
113.83
98.39
79.20
58.20
37.87
21.09
10.10
5.23
5.45
8.65
12.40
14.74
13.62
8.40
0.28
-8.17
-14.48
-16.80
-14.72
-9.38
-2.74
2.76
5.63
5.88
4.59
2.83
1.29
0.09
-0.70
-0.39
2.12
8.13
18.35
32.31
48.22
63.76
76.97
86.77
93.11
96.40
96.94
94.75
89.70
81.91
72.04
61.08
50.16
40.15
31.54
24.38
18.33
12.77
6.80
-0.53
-10.05
-22.22
-37.02
-53.95
-72.15
-90.55
-107.97
-123.27
-135.48
-144.14
-149.32
-151.65
-151.95
-150.86
-148.50
-144.52
-138.42
-129.96
-119.50
-107.81
-95.80
-84.06
-72.60
-60.99
-48.71
-35.55
-21.98
-8.95
2.42
11.46
18.26
23.46
27.82
31.64
34.73
36.67
37.57
38.26
40.17
44.48
51.26
59.16
65.82
69.20
68.15
62.61
53.31
41.21
27.25
12.28
-2.67
-16.22
-26.74
-33.29
-36.31
-37.66
-39.72
-44.03
-50.50
-57.38
-62.17
-62.35
-57.15
-47.98
-37.66
-28.82
-22.74
-19.23
-17.35
-16.43
-15.05
-13.11
-12.10
-14.30
-20.83
-30.66
-41.06
-48.72
-50.98
-43.41
-24.17
4.30
36.34
66.63
92.32
112.77
128.20
138.70
149.34
164.29
184.36
207.55
232.23
258.25
285.19
310.90
331.77
351.41
373.98
400.69
429.61
459.17
489.70
521.75
554.48
542.37
460.17
319.34
160.60
20.68
-85.43
-159.31
-208.95
-242.23
-262.53
-266.88
-251.54
-218.92
-178.59
-141.73
-116.09
-104.84
-107.13
-122.35
-141.25
-154.70
-159.02
-156.80
-152.97
-151.61
-155.42
-165.75
-182.67
-200.48
-212.39
-214.34
-206.37
-190.57
-169.05
-143.60
-115.80
-88.22
-61.91
-39.06
-24.08
-22.01
-33.83
-54.12
-73.30
-82.03
-76.91
-59.54
-36.13
-15.11
-3.87
-4.59
-14.07
-27.78
-43.17
-62.00
-85.38
-111.05
-133.60
-146.88
-145.05
-124.55
-86.60
-28.99
37.57
96.52
136.65
160.16
170.22
166.22
149.28
122.58
91.77
61.54
37.06
21.75
16.69
17.22
15.61
7.64
-6.39
-20.41
-31.08
-37.26
-36.94
-32.10
-28.18
-29.80
-37.35
-47.50
-53.21
-49.50
-33.67
-6.83
25.25
53.94
72.05
76.77
68.78
52.51
31.08
7.55
-14.83
-32.82
-43.31
-43.59
-28.64
-6.78
17.16
35.16
41.02
32.96
13.64
-11.62
-37.49
-60.93
-82.33
-97.60
-103.78
-98.89
-83.07
-58.27
-27.78
4.17
31.89
53.60
68.82
76.36
75.87
68.31
55.74
40.09
24.79
13.08
6.87
6.23
8.28
9.06
5.40
-3.50
-15.34
-25.07
-26.47
-14.16
14.14
55.71
103.08
145.64
172.40
175.26
151.70
105.48
45.60
-16.65
-70.92
-110.05
-131.00
-134.54
-124.01
-103.92
-79.00
-53.48
-31.03
-14.19
-3.95
0.29
0.51
-0.57
-0.23
3.49
11.23
21.81
32.77
41.13
44.40
41.20
31.56
16.84
-0.48
-17.21
-30.68
-38.98
-41.49
-38.89
-32.99
-26.34
-21.44
-19.66
-20.67
-23.14
-25.33
-25.86
-24.40
-22.15
-21.46
-24.86
-33.99
-45.30
-54.43
-57.69
-53.77
-43.28
-27.35
-7.08
16.03
39.69
60.74
76.69
84.76
83.40
73.27
56.89
37.63
18.78
2.45
-9.80
-17.69
-22.20
-24.57
-25.76
-26.29
-26.32
-25.76
-24.48
-22.35
-19.54
-16.08
-11.66
-5.92
1.05
8.66
15.86
21.48
24.43
23.93
20.01
13.51
5.79
-1.58
-6.87
-8.31
-3.11
9.91
28.02
45.84
58.41
63.23
60.13
50.77
37.84
24.10
11.37
0.39
-8.59
-15.72
-21.15
-25.15
-28.16
-30.88
-34.19
-39.13
-46.84
-56.22
-65.24
-71.33
-72.47
-68.00
-58.88
-47.25
-35.68
-26.01
-18.41
-11.85
-4.61
4.11
13.44
21.08
24.92
24.53
21.94
21.07
24.44
33.61
47.61
62.96
74.97
79.89
76.59
66.90
54.82
44.97
41.90
48.58
65.37
87.09
105.25
110.36
97.32
68.54
31.91
-3.25
-30.95
-50.72
-67.78
-87.28
-110.07
-132.80
-149.99
-156.43
-148.60
-126.30
-93.09
-52.26
-10.09
26.41
50.95
59.48
49.25
24.60
-2.57
-19.67
-21.46
-10.82
5.84
23.24
38.88
52.17
63.12
70.51
73.50
69.72
60.16
49.74
44.35
46.85
55.46
65.48
71.98
72.47
67.56
60.56
54.05
49.70
46.18
40.48
30.73
17.33
2.41
-12.24
-25.78
-37.78
-47.69
-55.00
-59.42
-61.47
-63.57
-69.22
-81.80
-102.04
-126.35
-148.53
-163.30
-168.58
-165.44
-157.23
-147.05
-137.39
-129.09
-120.41
-108.18
-89.62
-62.95
-27.13
17.43
69.10
122.07
162.07
176.63
165.40
139.18
110.42
89.78
75.87
65.71
57.14
49.97
46.94
49.92
59.06
71.34
81.82
85.44
79.90
65.80
46.25
26.48
11.39
3.18
0.50
-0.04
-2.11
-7.45
-15.49
-24.16
-30.36
-31.51
-26.98
-18.48
-9.09
-1.89
1.32
0.94
-1.30
-3.03
-2.29
1.55
7.42
13.06
17.45
17.57
13.97
8.19
1.71
-4.43
-9.84
-14.64
-19.13
-23.05
-26.54
-29.14
-30.77
-32.47
-35.57
-41.07
-49.25
-59.83
-71.98
-85.92
-101.42
-111.79
-110.96
-96.44
-71.10
-41.28
-16.89
-0.01
8.51
9.51
4.93
-2.41
-9.98
-15.63
-17.63
-14.68
-5.31
10.46
32.33
56.17
75.36
84.84
83.66
74.59
61.81
49.49
39.83
34.06
31.81
32.62
35.93
40.66
45.24
48.00
48.12
45.47
39.95
32.68
25.41
19.58
15.53
12.70
10.13
7.34
4.53
2.02
0.17
-0.83
-1.17
-1.43
-1.96
-2.64
-2.83
-1.73
0.47
2.95
4.68
6.53
9.35
13.64
19.10
23.40
27.20
31.05
34.70
38.02
39.94
39.29
35.59
29.23
21.45
14.31
9.82
10.24
17.71
33.28
55.87
81.89
105.89
122.35
127.98
122.48
108.82
91.68
75.26
61.54
50.10
39.12
26.85
12.79
-2.56
-18.11
-33.20
-48.23
-64.55
-83.56
-105.59
-129.20
-151.33
-168.61
-178.84
-182.08
-180.72
-178.57
-179.23
-184.48
-193.45
-202.97
-208.93
-207.83
-198.13
-180.55
-157.88
-133.99
-112.45
-95.46
-83.31
-74.78
-67.99
-61.41
-54.14
-46.45
-39.55
-34.74
-32.56
-32.41
-32.96
-32.92
-31.59
-28.48
-24.21
-20.45
-19.33
-22.52
-30.56
-42.54
-55.90
-66.36
-67.28
-52.82
-20.25
28.65
88.14
150.13
206.10
249.34
276.22
288.08
287.99
278.99
263.39
243.88
224.07
207.87
198.53
187.23
168.95
144.37
118.34
94.37
73.04
53.34
33.81
13.26
-8.63
-29.39
-46.25
-57.59
-64.06
-68.12
-71.83
-76.65
-83.04
-90.14
-94.81
-94.32
-85.90
-71.55
-54.96
-39.52
-27.29
-18.67
-12.74
-7.19
-0.31
8.15
16.81
24.25
29.66
32.93
34.36
34.15
32.65
29.65
24.37
15.86
4.43
-8.60
-20.72
-29.25
-32.74
-30.97
-25.17
-17.56
-10.66
-6.01
-4.29
-5.28
-8.24
-12.69
-17.69
-21.93
-24.19
-23.86
-21.08
-17.13
-13.96
-13.38
-16.97
-24.53
-34.05
-42.65
-47.80
-45.28
-33.24
-12.09
17.64
49.03
72.95
83.76
81.71
71.29
57.88
46.13
36.24
27.38
18.14
8.18
-1.78
-11.05
-18.87
-25.81
-33.62
-44.16
-57.98
-74.51
-91.85
-107.92
-121.95
-134.82
-147.90
-161.47
-173.43
-179.33
-174.52
-155.87
-123.20
-79.65
-30.68
17.75
60.87
95.99
122.53
140.99
152.26
157.13
156.08
149.42
137.65
121.85
103.69
85.06
67.38
51.30
37.03
24.94
16.05
12.06
14.71
24.60
40.21
57.74
72.00
78.70
76.13
65.58
50.54
35.22
22.93
15.12
11.28
9.28
7.48
5.52
3.96
3.73
5.63
10.12
17.16
26.08
35.07
42.76
48.26
50.21
46.47
34.96
14.83
-13.11
-46.42
-82.42
-116.90
-144.71
-161.66
-165.66
-156.43
-135.09
-104.19
-62.08
-15.99
21.82
42.71
46.12
36.83
21.26
5.34
-6.94
-13.83
-16.62
-17.87
-18.88
-20.90
-25.60
-33.50
-43.07
-51.93
-58.27
-62.53
-65.82
-69.08
-70.95
-70.89
-68.03
-60.44
-47.38
-29.86
-10.52
8.61
26.79
43.78
58.23
68.06
72.38
70.54
62.83
51.00
38.66
30.22
29.44
37.79
54.67
79.62
109.81
140.23
164.92
179.43
182.14
174.71
160.38
133.32
95.23
53.78
17.06
-12.32
-36.03
-59.54
-84.95
-111.54
-137.59
-154.92
-156.90
-140.82
-108.92
-67.19
-23.73
13.12
35.67
37.85
19.85
-13.28
-53.12
-90.02
-115.18
-122.75
-111.44
-79.71
-36.44
4.29
31.90
44.82
47.23
44.17
39.46
35.48
33.38
32.71
33.46
35.02
35.37
32.33
23.47
8.91
-8.51
-24.46
-35.59
-39.55
-36.05
-27.35
-17.51
-10.74
-9.40
-13.60
-21.77
-31.74
-40.63
-46.00
-47.19
-45.42
-42.94
-41.39
-41.36
-42.38
-43.59
-44.49
-45.31
-47.32
-51.58
-58.20
-65.59
-71.15
-72.22
-66.69
-53.95
-34.81
-11.62
13.52
38.87
63.30
85.36
103.17
115.59
122.02
123.00
119.36
113.42
107.76
104.53
104.11
105.12
105.91
104.56
99.69
90.04
77.01
64.06
56.25
57.58
64.01
70.57
71.63
70.98
67.82
62.34
52.16
38.37
22.18
3.90
-16.10
-37.49
-59.14
-80.31
-99.12
-113.94
-123.37
-127.65
-128.35
-126.74
-123.64
-118.87
-112.46
-103.78
-92.47
-78.08
-61.02
-42.38
-23.00
-3.33
16.66
36.40
55.17
69.03
74.16
69.64
58.89
47.14
38.03
32.55
29.55
27.37
24.77
21.85
19.10
17.01
15.67
15.07
14.60
13.89
12.90
11.66
10.43
8.94
6.93
4.26
1.17
-2.11
-5.41
-9.05
-13.96
-20.66
-30.03
-41.99
-55.28
-67.94
-78.26
-85.18
-88.40
-88.01
-79.56
-61.31
-35.28
-6.19
21.07
42.84
56.87
62.36
61.10
53.63
39.88
20.51
-2.67
-26.88
-49.02
-66.54
-76.21
-76.58
-68.73
-56.07
-42.30
-29.83
-19.24
-9.89
-0.99
7.57
15.07
20.07
21.23
18.55
13.67
9.11
6.94
8.08
12.08
17.83
23.68
27.75
28.73
26.36
21.42
15.39
10.21
7.83
10.13
17.76
29.25
41.70
51.90
57.58
58.18
55.10
46.82
35.39
25.81
21.88
23.21
26.27
26.93
22.18
11.16
-3.36
-19.22
-33.76
-44.92
-51.54
-53.10
-49.79
-42.47
-32.22
-20.03
-6.85
6.60
19.42
30.74
40.17
47.33
51.27
50.60
44.19
32.00
15.62
-2.34
-18.70
-30.11
-34.29
-30.84
-21.28
-8.42
4.46
14.50
19.58
17.24
7.85
-4.44
-13.98
-16.99
-12.98
-3.92
7.27
17.57
24.61
27.46
26.31
22.12
16.42
11.36
8.11
7.58
9.82
14.04
19.25
24.37
28.41
30.64
30.78
28.88
25.33
20.48
14.62
8.22
1.89
-4.00
-9.34
-14.18
-18.76
-23.25
-27.88
-32.79
-37.90
-43.03
-48.12
-53.18
-58.13
-62.66
-65.93
-66.88
-64.42
-57.92
-47.59
-34.62
-20.86
-8.19
1.95
9.01
13.14
14.96
15.25
14.73
14.02
13.55
13.59
14.19
15.16
16.12
16.65
16.48
15.58
14.21
12.83
11.88
11.59
11.87
12.28
12.20
11.04
8.51
4.74
0.20
-4.42
-8.52
-11.76
-14.12
-15.88
-17.47
-19.32
-21.76
-25.04
-29.23
-34.23
-39.59
-44.53
-47.94
-48.70
-46.03
-39.82
-30.73
-20.00
-9.03
1.10
9.81
17.07
23.06
28.00
31.91
34.70
36.26
36.60
35.92
34.59
33.04
31.69
30.82
30.54
30.70
30.97
30.93
30.24
28.79
26.70
24.26
21.82
19.59
17.59
15.64
13.47
10.78
7.45
3.49
-0.91
-5.47
-9.94
-14.20
-18.22
-22.12
-26.09
-30.29
-34.82
-39.57
-44.16
-47.91
-49.94
-49.39
-45.71
-38.86
-29.40
-18.32
-6.80
4.09
13.59
21.28
27.04
30.93
33.08
33.72
33.19
31.94
30.45
29.14
28.23
27.68
27.21
26.48
25.26
23.56
21.66
19.89
18.55
17.68
17.03
16.13
14.49
11.80
8.05
3.55
-1.25
-5.87
-10.04
-13.70
-16.97
-20.08
-23.29
-26.80
-30.74
-35.12
-39.73
-44.14
-47.68
-49.56
-49.09
-45.86
-39.97
-31.98
-22.83
-13.53
-4.91
2.55
8.80
13.95
18.19
21.47
23.67
24.64
24.45
23.50
22.38
21.63
21.48
21.80
22.18
22.21
21.70
20.76
19.65
18.62
17.74
16.88
15.83
14.32
12.18
9.36
5.92
2.03
-2.04
-6.04
-9.82
-13.30
-16.59
-19.89
-23.41
-27.34
-31.71
-36.44
-41.19
-45.41
-48.31
-49.06
-46.98
-41.90
-34.18
-24.69
-14.55
-4.75
4.04
11.55
17.76
22.78
26.67
29.40
30.95
31.40
31.00
30.14
29.25
28.62
28.34
28.28
28.16
27.74
26.87
25.59
24.05
22.36
20.52
18.36
15.70
12.45
8.71
4.68
0.60
-3.36
-7.08
-10.52
-13.75
-16.82
-19.81
-22.77
-25.91
-29.46
-33.65
-38.47
-43.56
-48.30
-51.78
-52.97
-50.99
-45.59
-37.22
-26.91
-15.93
-5.46
3.27
9.63
13.81
16.57
18.55
20.04
21.02
21.43
21.26
19.72
16.48
12.08
7.73
4.42
2.56
2.07
2.59
3.55
2.85
-1.00
-7.76
-15.71
-23.01
-28.53
-31.98
-33.77
-34.87
-38.52
-47.40
-62.04
-80.83
-101.37
-120.95
-136.73
-145.77
-134.57
-97.97
-44.29
10.04
52.57
79.36
92.78
97.44
98.02
97.94
97.17
94.96
91.28
86.57
80.37
71.27
57.68
39.39
18.10
-4.54
-26.09
-43.61
-54.75
-60.11
-60.20
-56.63
-51.15
-45.12
-40.21
-37.12
-35.23
-33.13
-29.78
-24.92
-19.34
-13.96
-9.48
-6.58
-5.20
-4.84
-4.84
-4.86
-4.75
-4.57
-4.17
-3.08
-1.87
-0.79
-0.05
0.29
0.37
0.68
1.91
4.79
9.80
16.83
25.33
34.29
42.62
49.50
54.57
57.80
59.34
59.40
58.15
55.83
52.70
49.01
44.95
40.61
35.98
31.00
25.67
20.07
14.42
8.97
3.88
-0.71
-4.71
-8.14
-11.26
-14.63
-19.19
-25.90
-35.31
-47.02
-59.38
-69.78
-75.38
-74.10
-65.21
-49.54
-28.98
-5.91
17.32
38.63
56.34
69.29
77.09
80.31
80.42
79.38
79.12
80.81
84.68
90.15
96.17
101.65
105.70
107.65
107.09
103.82
97.92
89.66
79.44
67.63
54.61
40.74
26.37
11.88
-2.43
-16.36
-29.86
-43.02
-56.01
-69.05
-82.34
-96.01
-110.06
-124.12
-137.37
-148.59
-156.41
-159.71
-157.95
-151.38
-141.03
-128.35
-114.84
-101.58
-89.22
-77.96
-67.55
-57.38
-46.67
-34.74
-21.33
-6.70
8.64
23.85
38.05
50.77
61.95
71.81
80.39
87.39
92.31
95.15
96.15
95.77
94.69
93.51
92.46
91.32
89.53
86.44
82.13
76.61
69.65
61.06
50.89
39.75
28.71
18.97
8.37
-3.22
-14.72
-25.11
-34.21
-42.42
-49.83
-56.08
-60.92
-64.62
-67.43
-70.03
-73.14
-76.95
-80.92
-84.43
-86.01
-84.47
-79.24
-70.18
-58.35
-45.97
-35.60
-29.18
-27.18
-28.23
-29.85
-29.29
-24.30
-13.91
0.71
17.88
35.63
52.24
66.59
78.10
86.78
93.25
98.21
102.07
104.84
105.98
104.73
100.76
94.37
86.60
78.66
71.14
63.63
55.14
44.90
33.10
21.07
10.45
2.08
-4.65
-11.69
-21.26
-34.61
-51.34
-69.50
-86.26
-98.91
-105.52
-105.23
-98.25
-85.76
-69.70
-52.41
-36.06
-22.01
-10.54
-1.09
7.18
14.63
21.01
25.70
28.32
29.17
29.20
29.42
30.35
31.73
32.71
32.35
30.23
26.58
22.15
17.81
14.14
11.26
8.92
6.64
4.01
0.75
-3.14
-7.43
-11.72
-15.57
-18.74
-21.20
-23.22
-25.11
-27.21
-29.68
-32.65
-36.24
-40.53
-45.49
-50.74
-55.49
-58.71
-59.45
-57.23
-52.22
-45.12
-36.88
-28.30
-19.80
-11.55
-3.60
3.94
10.82
16.78
21.69
25.63
28.80
31.46
33.74
35.67
37.19
38.17
38.53
38.22
37.28
35.80
33.99
32.03
30.07
28.11
26.02
23.59
20.63
17.08
13.01
8.62
4.08
-0.46
-4.94
-9.39
-13.84
-18.37
-23.02
-27.90
-32.95
-37.99
-42.58
-46.04
-47.64
-46.78
-43.33
-37.61
-30.42
-22.68
-15.13
-8.12
-1.64
4.43
10.15
15.35
19.71
22.93
24.85
25.61
25.48
24.82
23.95
23.07
22.32
21.77
21.43
21.20
20.90
20.32
19.29
17.74
15.73
13.36
10.75
7.95
4.99
1.87
-1.38
-4.67
-7.94
-11.13
-14.22
-17.20
-20.06
-22.81
-25.55
-28.45
-31.76
-35.68
-40.15
-44.77
-48.77
-51.23
-51.35
-48.79
-43.74
-36.85
-29.00
-20.96
-13.21
-5.96
0.82
7.15
12.98
18.14
22.46
25.89
28.50
30.41
31.80
32.69
33.06
32.85
32.12
31.02
29.83
28.83
28.14
27.68
27.17
26.25
24.60
22.08
18.82
15.15
11.48
8.16
5.34
2.91
0.63
-1.75
-4.38
-7.21
-10.08
-12.79
-15.27
-17.55
-19.76
-22.11
-24.82
-28.08
-31.93
-36.17
-40.20
-43.15
-44.04
-42.18
-37.49
-30.51
-22.27
-13.84
-5.96
1.07
7.30
12.90
17.90
22.18
25.53
27.83
29.15
29.72
29.82
29.68
29.40
28.99
28.42
27.70
26.91
26.18
25.58
25.14
24.75
24.19
23.19
21.57
19.28
16.42
13.31
10.26
7.55
5.25
3.30
1.48
-0.40
-2.46
-4.74
-7.15
-9.63
-12.14
-14.65
-17.22
-19.92
-22.89
-26.27
-30.13
-34.34
-38.47
-41.80
-43.43
-42.65
-39.18
-33.34
-25.93
-17.98
-10.34
-3.46
2.56
7.87
12.55
16.58
19.81
22.17
23.71
24.69
25.39
26.04
26.69
27.23
27.53
27.43
26.89
25.94
24.67
23.18
21.59
19.97
18.32
16.62
14.80
12.81
10.62
8.28
5.80
3.20
0.47
-2.40
-5.37
-8.35
-11.18
-13.75
-16.05
-18.20
-20.50
-23.26
-26.69
-30.71
-34.90
-38.55
-40.87
-41.16
-39.10
-34.77
-28.64
-21.44
-13.89
-6.61
0.01
5.81
10.78
14.96
18.39
21.06
22.98
24.14
24.63
24.59
24.22
23.66
22.98
22.21
21.35
20.45
19.58
18.79
18.09
17.34
16.35
14.96
13.12
10.92
8.56
6.23
4.00
1.83
-0.37
-2.71
-5.18
-7.76
-10.33
-12.85
-15.32
-17.80
-20.42
-23.33
-26.67
-30.53
-34.90
-39.55
-43.98
-47.51
-49.34
-48.92
-46.00
-40.82
-34.00
-26.38
-18.77
-11.76
-5.65
-0.49
3.81
7.41
10.43
12.93
14.92
16.35
17.16
17.25
16.59
15.22
13.32
11.26
9.43
8.17
7.52
7.19
6.58
5.06
2.25
-1.73
-6.26
-10.40
-13.32
-14.64
-14.65
-14.37
-15.35
-19.22
-27.11
-39.11
-53.96
-69.10
-81.39
-88.01
-87.47
-80.09
-67.82
-53.49
-39.75
-28.28
-19.48
-12.66
-6.62
-0.27
7.06
15.48
24.65
34.02
43.00
51.10
57.95
63.33
67.20
69.67
71.06
71.86
72.66
74.01
76.32
79.71
83.97
88.67
93.26
97.24
100.22
101.87
101.96
100.28
96.73
91.42
84.64
76.84
68.48
59.92
51.35
42.93
34.82
27.26
20.41
14.17
8.19
1.91
-5.09
-12.90
-21.15
-29.25
-36.72
-43.56
-50.30
-57.85
-67.09
-78.46
-91.71
-105.77
-118.90
-128.87
-133.34
-130.31
-118.53
-97.91
-69.68
-36.37
-1.30
31.95
60.21
81.18
93.70
97.79
94.47
85.55
73.25
59.85
47.20
36.42
27.79
20.92
15.06
9.53
4.00
-1.46
-6.55
-11.03
-14.91
-18.45
-22.03
-25.90
-30.11
-34.50
-38.83
-42.93
-46.72
-50.20
-53.27
-55.71
-57.17
-57.38
-56.34
-54.45
-52.50
-51.35
-51.70
-53.82
-57.47
-61.93
-66.14
-68.95
-69.34
-66.69
-60.85
-52.29
-41.91
-30.86
-20.24
-10.80
-2.84
3.70
9.00
13.24
16.35
18.19
18.64
17.81
16.05
13.83
11.62
9.62
7.80
5.96
3.96
1.92
0.17
-0.85
-0.83
0.26
2.13
4.29
6.30
7.82
8.67
8.77
8.09
6.58
4.30
1.40
-1.73
-4.57
-6.57
-7.51
-7.58
-7.48
-8.14
-10.29
-14.10
-18.97
-23.78
-27.25
-28.43
-26.99
-23.13
-17.36
-10.11
-1.73
7.46
16.97
26.04
33.66
38.99
41.57
41.61
39.97
37.90
36.56
36.63
37.98
39.74
40.70
39.84
36.84
32.22
27.13
22.75
19.74
18.04
16.91
15.50
13.20
9.92
5.99
1.89
-2.01
-5.54
-8.71
-11.60
-14.33
-17.11
-20.26
-24.22
-29.39
-35.85
-43.16
-50.31
-55.85
-58.29
-56.58
-50.46
-40.51
-28.10
-14.89
-2.38
8.48
17.45
24.83
31.15
36.83
41.99
46.47
50.01
52.44
53.78
54.14
53.65
52.42
50.52
48.09
45.45
43.05
41.28
40.32
39.98
39.69
38.70
36.39
32.45
27.10
20.95
14.83
9.46
5.24
2.13
-0.37
-2.96
-6.36
-11.06
