1678175505.00
64.000000
-0.00
-0.00
-0.00
-0.00
-0.00
-0.00
-0.00
-0.00
-0.00
-0.00
0.00
0.01
0.01
-0.00
-0.03
-0.05
-0.05
0.00
0.13
0.36
0.66
1.01
1.37
1.72
2.06
2.40
2.79
3.24
3.80
4.42
5.06
5.66
6.20
6.69
7.17
7.72
8.40
9.31
10.38
11.50
12.57
13.53
14.43
15.43
16.75
18.51
20.96
23.90
27.05
30.12
32.93
35.56
38.32
41.63
45.82
51.28
57.68
64.50
71.17
77.35
83.13
89.00
95.65
103.60
113.38
124.48
136.11
147.40
157.85
167.53
177.10
187.89
198.62
211.55
227.26
245.87
266.20
285.38
299.09
302.72
292.86
268.63
232.43
188.07
139.90
91.19
43.59
-2.57
-47.36
-90.61
-131.63
-169.19
-202.62
-231.40
-255.01
-272.61
-283.02
-285.08
-278.94
-265.83
-247.98
-228.58
-210.76
-196.90
-188.20
-184.63
-185.38
-189.51
-196.32
-205.44
-216.91
-230.61
-245.91
-261.68
-276.44
-288.43
-296.50
-300.20
-299.96
-297.34
-295.12
-297.01
-306.43
-324.86
-350.02
-375.72
-393.36
-395.10
-377.32
-342.16
-296.81
-250.26
-209.79
-178.63
-155.81
-137.78
-120.56
-100.72
-75.44
-42.02
1.51
54.98
114.46
172.09
218.22
244.88
249.09
234.23
208.55
181.68
161.21
150.69
149.97
156.86
169.02
184.80
203.07
222.51
241.26
257.18
268.60
274.82
276.14
273.64
268.46
261.23
251.98
240.29
225.68
208.15
188.32
167.40
146.82
127.76
110.82
95.89
82.41
69.65
57.15
44.88
33.21
22.73
13.89
6.86
1.45
-2.83
-6.49
-9.89
-13.18
-16.24
-18.85
-20.84
-22.12
-22.79
-23.01
-22.96
-22.78
-22.54
-22.24
-21.89
-21.49
-21.07
-20.63
-20.16
-19.61
-18.95
-18.16
-17.24
-16.27
-15.32
-14.45
-13.68
-12.91
-12.10
-11.20
-10.19
-9.11
-8.07
-7.19
-6.57
-6.21
-6.01
-5.78
-5.34
-4.59
-3.64
-2.75
-2.22
-2.32
-3.03
-4.09
-5.02
-5.37
-4.91
-3.87
-2.83
-2.48
-3.31
-5.38
-8.13
-10.68
-12.22
-12.44
-11.84
-11.67
-13.33
-17.88
-25.46
-35.26
-45.72
-55.44
-63.47
-69.79
-75.05
-79.98
-85.11
-90.74
-97.05
-103.85
-110.00
-112.50
-107.48
-91.19
-62.10
-22.73
20.50
59.44
87.48
102.03
104.99
101.39
95.46
89.75
84.60
79.19
73.02
66.64
61.27
57.89
56.50
56.12
55.56
53.82
50.64
46.49
42.21
38.57
35.98
34.41
33.57
33.11
32.87
32.53
31.76
30.20
27.55
23.82
19.57
16.08
14.26
14.92
17.81
21.80
25.17
26.60
25.64
23.16
21.07
20.69
23.89
30.94
40.98
52.09
61.48
65.66
61.26
46.39
21.74
-8.36
-38.45
-63.02
-79.15
-87.61
-92.29
-97.82
-106.53
-116.82
-123.52
-120.76
-105.12
-78.10
-45.62
-15.81
4.70
13.64
13.77
11.59
13.32
22.69
38.23
54.67
65.96
66.15
52.55
26.21
-8.15
-43.03
-69.82
-81.44
-75.28
-54.46
-26.83
-1.53
15.15
22.29
24.06
26.48
33.81
46.44
60.98
72.20
75.78
70.05
56.37
38.15
18.67
0.09
-17.06
-33.26
-49.38
-65.61
-81.43
-96.08
-108.21
-116.97
-121.48
-120.55
-112.62
-96.52
-72.47
-42.11
-11.55
13.55
29.84
37.03
37.24
33.39
27.79
21.55
15.18
9.21
4.91
3.33
4.55
7.54
10.62
12.35
12.07
10.32
8.27
7.43
9.03
12.79
17.87
23.23
28.06
32.06
35.38
38.32
41.23
44.16
46.87
49.13
50.82
52.04
53.05
54.39
56.76
61.08
67.74
75.85
82.94
85.27
79.38
63.86
40.63
14.54
-8.46
-23.85
-30.24
-29.30
-24.38
-18.54
-13.25
-8.85
-5.08
-2.22
-1.45
-4.16
-10.76
-20.26
-30.78
-40.41
-48.24
-54.24
-58.88
-62.44
-64.83
-65.74
-65.07
-63.25
-60.92
-58.89
-57.69
-57.73
-59.14
-61.54
-63.67
-63.43
-59.14
-49.10
-33.96
-16.67
-1.24
9.11
13.62
14.25
14.51
17.48
24.57
34.98
46.84
58.53
69.36
79.57
89.38
98.13
103.98
104.62
98.17
84.56
65.96
46.16
29.13
17.58
12.03
10.94
11.89
12.96
13.74
14.98
17.44
20.56
21.94
18.19
6.29
-14.81
-43.31
-74.90
-104.22
-126.73
-139.92
-143.59
-139.17
-129.22
-116.51
-103.02
-89.41
-75.08
-58.67
-38.98
-15.74
10.22
36.15
58.21
73.31
80.58
81.69
79.92
78.58
79.95
85.21
93.49
102.37
108.97
110.94
106.72
95.21
75.53
45.92
10.52
-22.57
-46.72
-60.45
-66.17
-66.45
-62.87
-56.49
-48.14
-38.09
-28.14
-21.30
-20.06
-25.41
-36.35
-48.57
-58.64
-64.91
-66.32
-64.86
-64.95
-71.52
-88.64
-115.27
-146.55
-175.76
-195.89
-199.83
-186.28
-152.69
-104.05
-50.03
2.90
51.61
96.21
139.44
187.62
244.04
298.24
352.90
397.42
424.61
430.18
413.13
360.80
279.27
190.60
118.16
71.21
43.76
28.34
20.22
17.97
21.69
33.36
49.79
66.65
76.58
73.61
59.74
41.23
24.22
11.67
5.09
1.81
-4.47
-18.55
-44.87
-80.48
-118.19
-151.52
-177.89
-196.71
-210.22
-222.20
-241.98
-275.94
-322.09
-373.33
-422.75
-467.53
-506.70
-540.99
-534.38
-472.98
-373.65
-269.34
-183.37
-120.11
-72.31
-27.79
23.48
85.51
149.87
205.55
245.94
269.88
279.91
275.50
256.56
224.95
185.19
139.32
91.45
48.56
17.06
5.54
11.24
26.45
43.94
59.61
69.74
73.12
71.98
69.91
69.56
70.29
70.80
70.11
67.60
62.02
52.44
40.64
28.85
18.24
7.43
-5.10
-20.44
-39.17
-59.14
-80.51
-101.45
-118.01
-125.07
-118.82
-97.92
-64.99
-26.36
10.20
38.17
55.24
63.11
65.68
66.39
67.62
70.27
74.22
78.22
80.31
79.18
74.48
67.27
59.47
52.87
47.39
41.21
31.92
18.39
2.88
-10.13
-16.46
-15.08
-8.73
-2.20
0.93
0.50
-0.52
1.55
8.06
17.16
24.98
28.00
24.57
16.18
6.59
-0.19
-2.05
0.19
3.44
3.48
-2.82
-17.09
-38.48
-64.00
-88.16
-103.18
-103.49
-86.42
-56.22
-20.10
10.51
25.11
18.33
-6.87
-40.83
-71.18
-87.29
-84.07
-62.61
-29.27
9.42
43.91
68.70
81.99
84.94
81.03
75.01
71.27
71.52
75.48
79.93
80.30
72.18
53.60
26.06
-5.85
-35.90
-58.63
-68.39
-61.18
-36.30
2.18
45.80
83.43
104.77
103.81
80.53
43.16
4.24
-24.18
-34.71
-25.21
1.62
40.74
91.02
142.54
186.85
223.47
255.97
286.24
313.86
333.11
339.27
329.88
305.59
271.95
236.25
203.49
174.54
147.41
119.04
87.92
53.93
17.11
-22.43
-65.41
-113.22
-167.53
-228.40
-294.27
-362.59
-430.93
-497.22
-558.24
-608.37
-639.97
-647.69
-629.81
-588.81
-530.28
-460.85
-386.35
-312.24
-243.40
-184.79
-144.29
-128.08
-135.70
-158.59
-183.01
-195.74
-191.01
-170.50
-139.64
-107.37
-79.42
-55.11
-29.49
2.75
53.99
122.56
185.26
230.97
255.59
257.67
242.28
219.72
201.79
197.52
208.26
229.36
254.27
268.78
260.56
228.54
183.68
139.29
102.56
71.06
39.20
4.91
-30.49
-62.17
-83.90
-92.36
-88.93
-77.80
-65.50
-57.43
-54.98
-55.92
-55.35
-47.62
-29.50
-1.79
33.83
73.51
113.74
148.11
175.05
196.43
215.93
236.86
261.07
291.89
329.35
369.30
404.33
426.71
430.06
411.68
373.26
303.11
207.23
104.90
17.03
-46.34
-86.44
-109.90
-122.14
-126.08
-123.51
-113.81
-99.13
-84.10
-73.42
-68.69
-69.36
-72.59
-76.32
-80.22
-83.44
-87.32
-94.73
-108.18
-124.74
-141.71
-156.31
-166.77
-172.88
-173.99
-170.64
-164.32
-157.04
-150.52
-146.30
-144.39
-142.82
-137.66
-123.34
-96.38
-57.59
-12.50
31.36
67.47
93.18
109.73
118.97
121.79
116.92
102.69
79.22
50.40
23.21
5.44
0.84
7.63
20.12
31.13
36.77
35.95
29.50
18.83
5.07
-11.49
-31.16
-52.87
-76.82
-101.91
-124.83
-140.18
-142.24
-127.76
-98.05
-59.23
-19.93
12.21
33.97
46.41
52.25
52.80
46.90
32.76
11.11
-12.72
-30.38
-34.14
-21.41
3.53
31.59
53.43
62.96
60.57
51.17
40.23
31.04
23.87
17.24
9.90
1.95
-5.48
-11.13
-14.35
-15.73
-16.57
-18.07
-20.82
-24.53
-28.18
-30.70
-31.43
-30.52
-28.82
-27.18
-26.02
-25.03
-23.24
-19.54
-13.23
-4.48
5.81
16.43
26.56
36.14
45.80
56.33
68.05
80.31
91.33
98.97
101.44
98.14
89.85
78.40
66.10
55.32
48.25
46.17
49.00
54.66
59.10
57.36
45.52
22.86
-7.89
-39.12
-63.03
-74.92
-74.75
-66.32
-54.75
-43.87
-34.99
-27.51
-20.33
-13.49
-8.06
-5.20
-5.18
-7.00
-8.91
-9.10
-6.68
-1.92
3.74
8.59
11.43
12.11
11.50
10.97
11.79
14.46
18.69
23.45
27.56
30.25
31.49
31.88
32.19
32.90
33.81
34.16
32.81
28.87
22.00
12.86
2.76
-6.81
-14.59
-19.96
-23.00
-24.24
-24.42
-24.18
-23.80
-23.42
-23.43
-24.40
-26.98
-31.68
-38.52
-46.19
-54.81
-64.58
-75.76
-87.60
-97.75
-102.04
-95.99
-77.16
-46.74
-9.55
28.16
60.95
85.56
100.44
104.58
97.02
77.26
47.04
11.46
-22.06
-46.04
-56.43
-54.36
-45.22
-36.05
-32.86
-39.08
-53.73
-74.31
-95.60
-110.79
-113.84
-101.47
-74.59
-38.62
-1.65
27.99
43.91
43.45
27.85
1.31
-29.96
-59.07
-79.80
-88.63
-84.08
-68.38
-46.09
-22.45
-1.40
15.60
29.02
40.21
50.17
59.01
65.82
69.71
70.24
67.56
62.37
55.15
45.66
33.22
18.09
0.88
-17.07
-34.17
-49.09
-61.22
-70.66
-77.97
-83.50
-87.06
-88.11
-85.57
-78.42
-66.27
-49.45
-29.13
-6.96
15.49
36.25
54.42
69.53
81.47
90.23
95.84
98.40
98.13
95.56
91.44
86.64
81.76
77.16
72.79
68.41
63.76
58.84
53.99
49.73
47.07
45.88
45.75
45.90
45.49
43.97
41.42
38.57
36.47
36.09
37.66
40.64
43.89
46.20
46.82
45.80
43.90
42.23
41.84
43.51
47.86
55.00
63.92
71.93
74.80
68.15
49.53
20.22
-14.60
-47.45
-71.66
-84.00
-85.58
-80.64
-73.92
-68.42
-64.56
-61.00
-56.21
-49.75
-42.54
-36.15
-31.91
-30.15
-30.13
-30.28
-29.03
-25.38
-19.34
-12.19
-5.78
-1.98
-1.93
-5.58
-12.14
-20.82
-31.24
-43.05
-54.90
-63.90
-66.53
-60.53
-46.88
-30.23
-17.08
-12.41
-17.04
-27.09
-35.97
-38.63
-33.75
-23.91
-13.22
-4.56
1.81
7.44
13.82
20.78
26.44
28.75
26.97
22.10
16.63
13.37
13.79
17.52
22.55
26.20
26.67
23.77
19.08
15.07
13.82
15.67
19.26
22.16
21.82
16.98
7.82
-4.65
-19.25
-34.76
-49.40
-60.42
-64.77
-60.75
-49.52
-35.67
-25.01
-21.94
-26.93
-36.44
-45.21
-49.76
-50.53
-50.94
-54.20
-59.80
-62.79
-56.25
-35.68
-2.41
36.45
71.18
94.18
103.01
100.98
94.63
90.03
90.03
93.94
99.20
103.32
104.92
103.32
97.51
85.59
65.71
37.77
4.25
-29.21
-56.18
-71.84
-75.01
-68.38
-57.10
-46.41
-38.42
-34.45
-32.89
-31.32
-27.81
-21.37
-11.98
-0.37
12.30
24.27
33.29
37.34
34.82
26.82
17.21
12.05
17.45
37.06
69.75
108.73
143.65
162.92
159.37
132.80
89.87
41.42
-1.55
-31.65
-46.74
-49.03
-44.13
-36.59
-29.13
-23.06
-19.42
-19.93
-27.20
-43.70
-62.44
-80.87
-96.31
-106.28
-109.17
-105.39
-97.40
-88.70
-82.38
-79.80
-81.31
-84.70
-86.88
-85.56
-80.28
-72.50
-64.78
-59.48
-58.05
-61.54
-69.27
-79.13
-87.80
-91.12
-85.07
-67.31
-38.63
-3.38
31.30
58.93
76.17
83.65
84.93
84.11
83.53
83.07
81.18
76.30
68.75
60.68
54.85
53.13
56.04
63.02
72.86
83.58
92.85
97.70
95.52
85.42
69.16
51.12
36.53
29.24
29.89
36.00
43.14
47.48
47.16
42.41
34.29
23.53
9.96
-5.99
-24.04
-43.02
-60.71
-74.85
-83.70
-87.05
-85.86
-81.73
-77.42
-72.32
-65.69
-56.32
-43.20
-25.89
-5.07
17.61
39.87
59.52
75.04
85.09
89.22
87.59
81.02
70.55
57.23
42.11
26.33
11.40
-2.07
-13.48
-22.44
-28.39
-30.97
-30.18
-26.23
-19.35
-9.34
2.87
16.50
30.71
45.26
59.86
73.75
85.86
95.05
100.49
99.64
92.37
77.47
54.10
21.64
-20.57
-72.77
-134.38
-192.66
-235.77
-257.05
-257.98
-245.11
-225.61
-204.85
-185.95
-170.42
-158.60
-151.62
-149.17
-148.57
-144.33
-130.22
-102.46
-61.91
-14.45
31.60
67.88
90.04
98.86
98.93
95.49
91.65
87.65
82.10
74.27
64.73
55.89
51.32
54.38
66.93
86.86
109.95
129.56
139.15
134.94
118.21
94.84
72.18
56.03
47.89
45.37
44.03
40.06
31.07
15.52
-6.65
-36.70
-73.28
-111.00
-141.10
-155.30
-149.76
-127.46
-96.89
-68.03
-48.03
-38.71
-37.48
-40.09
-43.82
-47.79
-52.02
-56.00
-58.17
-56.26
-48.83
-37.01
-22.39
-7.95
3.25
9.38
10.12
6.32
-0.50
-9.63
-20.73
-33.82
-49.06
-65.87
-82.59
-96.67
-105.94
-107.87
-101.25
-86.06
-63.73
-36.76
-7.92
20.25
45.61
66.36
80.94
88.08
87.73
80.63
68.31
53.02
37.30
23.29
12.12
3.93
-2.18
-6.35
-8.64
-8.47
-4.82
3.16
15.49
30.79
46.69
60.57
71.70
80.54
88.99
99.88
116.33
141.07
176.16
222.96
273.20
319.56
353.23
365.55
350.93
309.79
249.39
181.49
118.28
67.76
32.84
10.76
-3.22
-12.78
-18.98
-21.08
-18.94
-14.06
-9.81
-8.86
-12.72
-20.49
-29.36
-35.78
-36.98
-33.86
-29.58
-28.74
-35.05
-50.73
-75.98
-109.34
-148.35
-188.54
-225.14
-252.66
-266.27
-263.12
-244.25
-214.73
-182.06
-153.30
-132.52
-120.43
-114.90
-113.52
-114.89
-118.73
-124.78
-131.47
-135.63
-133.53
-123.58
-105.21
-80.43
-52.21
-23.30
5.33
34.40
65.41
98.70
133.87
169.88
204.61
234.80
256.06
263.55
253.47
225.10
182.18
132.61
85.96
49.80
27.25
16.54
13.05
12.15
11.35
10.53
10.84
12.92
15.90
17.97
17.60
14.65
10.39
6.68
5.20
6.38
9.36
12.45
13.76
12.08
7.19
-0.19
-8.66
-17.23
-25.20
-32.29
-38.52
-43.92
-48.26
-51.06
-51.85
-50.14
-45.89
-39.34
-31.33
-22.88
-14.96
-8.27
-3.24
0.03
1.92
3.01
4.16
6.32
10.22
15.90
23.02
30.84
38.01
43.40
45.73
43.58
35.71
21.77
2.87
-18.13
-37.42
-51.73
-59.15
-60.59
-58.45
-55.19
-52.44
-50.51
-49.10
-48.04
-47.96
-49.53
-53.21
-58.54
-64.33
-69.31
-72.91
-75.38
-77.54
-80.25
-83.82
-88.30
-93.29
-97.83
-101.16
-102.38
-100.96
-96.24
-87.90
-75.89
-60.38
-41.72
-20.50
2.40
25.89
48.19
68.10
84.66
97.27
105.69
110.14
111.15
109.44
105.77
101.30
96.31
91.11
85.95
80.95
76.19
71.67
67.41
63.37
59.51
55.85
52.44
49.35
46.56
44.11
41.93
40.03
38.35
36.77
35.17
33.41
31.37
28.83
26.09
22.79
19.00
14.95
10.95
7.35
4.52
2.73
2.06
2.46
3.59
5.11
6.49
7.20
6.63
4.36
0.11
-6.08
-14.01
-23.42
-33.74
-44.39
-54.70
-64.10
-72.10
-78.34
-82.53
-84.61
-84.84
-83.30
-80.30
-76.28
-71.74
-67.20
-63.26
-60.16
-58.12
-57.43
-57.75
-58.82
-60.33
-62.04
-63.79
-65.67
-67.14
-67.87
-68.05
-67.33
-65.77
-63.43
-60.48
-57.28
-54.48
-51.24
-46.73
-40.90
-33.07
-22.97
-10.31
5.02
22.67
41.75
63.99
92.24
120.90
147.25
169.61
187.58
201.57
212.00
218.76
224.84
233.68
247.14
266.50
291.83
322.81
358.92
399.63
422.89
415.41
376.87
316.39
244.46
167.00
87.65
11.07
-56.61
-107.79
-142.38
-161.85
-170.54
-174.21
-178.04
-185.38
-198.28
-215.19
-234.96
-255.19
-274.16
-291.82
-307.60
-318.49
-318.56
-301.42
-264.24
-210.99
-150.37
-93.24
-49.35
-23.45
-13.76
-13.65
-15.07
-13.09
-7.57
-0.93
4.53
7.91
10.04
13.10
19.19
30.12
46.01
65.59
87.27
109.11
128.10
139.74
139.64
121.27
86.70
43.73
3.07
-26.19
-40.01
-40.36
-34.74
-30.01
-30.68
-37.68
-49.85
-64.28
-77.22
-84.83
-81.98
-67.86
-46.15
-23.45
-5.43
4.65
7.22
5.06
1.16
-2.62
-6.47
-11.49
-17.07
-20.51
-18.69
-9.52
7.10
29.34
54.50
78.33
96.33
104.52
100.34
83.26
55.42
21.08
-16.95
-53.56
-85.10
-110.25
-129.75
-145.05
-156.87
-164.68
-167.33
-164.28
-156.20
-145.84
-136.61
-130.92
-129.24
-130.10
-131.08
-130.12
-126.71
-121.69
-117.34
-115.71
-117.79
-123.42
-131.80
-141.91
-152.27
-160.86
-164.93
-161.97
-150.46
-130.99
-106.20
-79.94
-55.26
-32.65
-10.30
14.77
44.23
77.75
112.72
145.37
172.10
190.40
199.80
200.43
192.79
177.42
157.83
140.08
131.29
136.61
157.24
191.41
233.32
275.06
307.47
325.94
329.34
318.69
295.55
262.91
228.88
202.61
191.54
195.97
214.38
241.75
270.79
293.02
302.23
299.77
289.72
276.30
258.68
239.27
220.74
204.99
191.29
155.11
85.67
-9.95
-87.87
-135.86
-153.41
-152.10
-139.67
-123.24
-107.76
-91.24
-70.46
-44.08
-17.76
5.15
22.51
34.22
40.60
42.38
42.38
40.71
34.63
18.23
-7.16
-34.06
-51.62
-51.98
-34.01
-2.06
34.41
65.05
81.06
81.83
72.78
61.78
54.60
52.95
55.53
58.76
59.06
54.11
45.49
37.05
32.57
33.39
38.32
45.06
51.66
57.38
62.09
65.78
67.23
63.97
53.42
34.47
8.46
-21.31
-50.85
-76.94
-98.05
-114.43
-127.78
-140.18
-153.26
-167.09
-179.77
-188.01
-188.41
-179.11
-161.22
-139.04
-119.13
-108.24
-111.42
-130.63
-165.00
-211.77
-266.85
-324.83
-379.02
-421.63
-445.80
-448.69
-433.55
-409.47
-387.47
-375.28
-372.91
-372.90
-364.25
-338.49
-294.35
-237.59
-177.59
-122.55
-76.32
-38.09
-4.71
27.18
59.99
94.30
130.01
166.44
201.85
233.14
256.95
269.69
269.38
256.07
229.49
189.91
138.04
75.45
5.84
-63.89
-126.45
-175.16
-206.35
-222.91
-230.74
-235.42
-239.62
-242.15
-237.96
-223.91
-199.65
-168.16
-136.76
-111.06
-92.19
-78.04
-65.72
-53.02
-43.41
-42.24
-35.87
-15.46
22.70
75.44
133.72
178.12
207.86
224.44
230.40
228.67
221.57
208.98
190.49
164.39
129.55
88.02
41.53
-7.28
-54.89
-99.04
-136.33
-151.47
-134.01
-85.65
-20.07
43.17
89.81
115.15
121.17
113.76
99.19
80.05
56.60
29.93
2.49
-21.67
-38.49
-46.16
-45.40
-38.73
-30.77
-25.48
-23.98
-24.48
-23.79
-18.96
-8.69
6.43
24.99
44.69
64.56
82.13
98.08
114.35
133.16
156.38
184.98
218.74
255.22
290.13
318.01
334.08
335.30
321.79
297.16
267.09
237.33
211.80
192.04
177.60
166.98
158.39
150.45
142.31
133.17
122.04
107.97
90.60
70.24
47.16
21.33
-7.65
-40.40
-77.84
-120.80
-169.34
-220.17
-264.41
-291.90
-297.31
-282.69
-254.78
-220.81
-186.25
-154.15
-125.60
-100.83
-80.26
-64.49
-53.56
-46.64
-42.22
-38.88
-35.53
-31.50
-26.61
-21.39
-16.58
-12.53
-9.21
-6.44
-4.12
-2.23
-0.51
1.54
4.36
8.36
13.64
19.61
24.88
27.72
26.81
22.13
15.22
8.66
5.17
6.35
11.92
19.72
26.59
29.69
27.47
20.08
8.72
-4.71
-17.79
-27.59
-31.28
-26.79
-13.66
6.10
27.86
45.42
53.32
49.47
36.48
20.75
8.90
4.06
3.94
2.25
-7.16
-25.54
-47.87
-66.10
-73.97
-71.33
-64.50
-61.54
-66.44
-75.66
-79.62
-68.59
-38.94
4.17
48.63
80.84
91.72
79.59
49.95
12.36
-23.24
-48.53
-59.77
-57.50
-45.31
-27.52
-8.00
10.94
28.09
42.54
52.08
53.60
44.51
24.99
-0.69
-25.13
-39.78
-38.92
-22.78
2.63
28.09
44.97
48.75
40.12
23.63
4.86
-11.97
-25.10
-34.71
-41.27
-44.53
-43.15
-35.79
-22.51
-5.80
9.76
18.48
16.86
5.74
-9.94
-23.10
-28.20
-24.08
-14.24
-4.59
0.75
1.83
2.88
9.44
24.78
47.22
70.08
85.60
88.46
78.27
59.43
38.70
21.45
9.72
2.23
-3.71
-9.90
-16.25
-21.22
-23.19
-21.80
-18.45
-15.45
-15.27
-18.97
-25.96
-34.34
-41.79
-46.52
-47.86
-46.48
-43.58
-40.33
-37.02
-33.14
-27.59
-19.47
-8.69
3.92
16.58
27.46
35.27
39.77
41.70
42.59
43.84
46.07
49.26
52.55
55.04
56.24
56.38
56.21
56.76
58.81
62.32
67.20
72.95
78.88
83.73
85.70
82.87
73.91
59.08
40.02
20.03
2.41
-10.49
-18.17
-21.70
-22.77
-22.68
-21.95
-21.13
-20.79
-22.54
-28.50
-40.51
-59.09
-82.59
-107.51
-126.96
-136.50
-134.69
-123.57
-107.21
-89.76
-73.85
-59.85
-46.61
-32.71
-18.32
-4.97
4.96
9.80
9.50
6.24
3.49
4.71
11.89
24.34
39.28
52.66
60.88
61.73
54.97
41.60
24.26
6.72
-6.59
-11.23
-4.92
11.07
31.87
50.63
60.79
59.26
47.35
29.74
12.02
-2.28
-13.16
-22.66
-32.72
-44.43
-56.99
-68.79
-78.43
-85.39
-90.34
-95.34
-102.42
-109.38
-114.60
-115.95
-110.47
-94.63
-65.60
-21.09
32.95
83.80
118.56
130.97
123.85
105.72
85.63
69.06
56.74
45.97
34.25
21.68
10.45
3.42
2.01
5.24
10.23
13.25
11.27
3.36
-8.69
-21.60
-31.92
-37.37
-37.67
-34.12
-28.98
-24.36
-21.21
-18.61
-14.44
-6.37
7.01
25.23
46.19
66.83
84.48
97.53
106.21
112.27
117.95
125.22
134.49
145.50
158.10
172.51
187.73
200.70
206.61
200.95
182.54
153.71
121.16
92.02
74.03
70.24
77.48
88.87
97.85
101.25
97.23
85.58
66.09
38.37
1.87
-42.77
-92.67
-143.29
-190.05
-232.95
-274.08
-315.82
-358.96
-402.57
-444.60
-482.68
-514.74
-521.90
-492.63
-426.75
-336.55
-239.65
-150.10
-74.62
-13.82
34.90
74.86
106.18
128.41
142.01
149.12
152.85
155.96
160.26
166.35
173.80
179.71
181.37
177.76
169.69
159.59
149.88
142.28
137.75
136.25
136.05
135.56
134.24
132.67
132.31
134.33
139.13
146.34
154.81
162.71
168.53
171.92
173.35
173.77
173.46
171.49
168.04
161.68
150.53
133.12
109.22
79.75
46.30
10.09
-27.87
-66.73
-106.22
-146.24
-186.99
-229.04
-273.16
-319.62
-367.72
-413.73
-451.02
-472.87
-475.30
-459.02
-429.08
-392.70
-356.05
-323.35
-294.49
-266.91
-239.29
-213.52
-193.67
-182.70
-180.09
-181.43
-182.21
-177.80
-165.23
-144.25
-116.59
-83.97
-46.62
-3.91
53.69
122.25
187.73
235.41
258.91
261.08
249.11
230.09
208.83
187.68
165.57
142.08
118.25
95.60
75.24
57.09
40.56
25.05
10.26
-4.95
-20.48
-34.38
-44.31
-48.40
-46.40
-39.37
-29.15
-17.86
-8.18
-1.43
2.64
5.18
7.95
11.95
17.44
24.16
31.63
39.35
47.88
59.36
72.35
87.62
105.99
128.02
153.66
181.76
209.75
233.92
250.18
254.97
247.35
228.56
202.16
172.88
145.02
121.19
101.92
86.19
72.49
60.31
49.77
41.44
35.66
32.04
29.46
26.74
23.32
19.71
17.26
17.23
20.13
25.61
32.34
38.55
42.51
43.19
40.66
35.90
30.61
26.53
25.14
26.46
28.77
29.24
25.47
16.93
5.05
-7.28
-17.08
-22.20
-22.68
-21.14
-21.99
-29.82
-48.00
-78.03
-119.14
-168.36
-217.33
-254.15
-268.58
-258.14
-229.21
-191.88
-154.22
-119.56
-87.51
-55.79
-23.30
8.14
34.61
51.88
57.49
50.77
33.00
7.56
-19.62
-40.87
-48.78
-38.24
-8.68
35.17
84.07
127.73
156.83
165.80
155.46
131.85
103.06
75.54
52.11
31.54
10.39
-14.65
-44.46
-76.97
-108.00
-132.58
-146.97
-149.55
-141.35
-125.57
-106.40
-87.19
-70.18
-56.74
-47.68
-44.15
-47.37
-57.69
-73.48
-90.94
-105.14
-112.19
-110.96
-102.47
-89.87
-77.09
-67.40
-62.07
-60.10
-59.29
-57.50
-53.81
-46.86
-36.20
-22.65
-8.37
4.06
12.91
17.60
18.80
18.37
21.46
33.77
59.14
97.74
146.67
201.41
257.18
310.02
343.34
344.40
311.41
255.46
191.60
130.32
75.85
28.54
-12.45
-48.35
-78.20
-100.94
-116.86
-128.11
-137.24
-145.79
-154.14
-161.55
-167.37
-169.45
-165.85
-155.96
-140.92
-122.62
-102.71
-82.56
-62.82
-44.33
-26.84
-9.68
7.86
26.29
46.59
70.98
98.08
128.53
162.40
198.83
234.73
265.03
283.88
287.11
274.00
247.63
214.18
179.72
148.55
122.30
100.20
80.52
62.19
45.43
31.19
20.76
14.20
10.52
8.36
6.15
2.85
-1.29
-4.96
-6.65
-5.37
-1.60
2.99
6.73
7.68
4.75
-1.59
-9.37
-15.97
-19.22
-18.48
-14.48
-8.75
-4.83
-7.17
-19.75
-44.81
-82.16
-129.57
-183.56
-240.22
-286.54
-308.77
-299.30
-261.74
-207.81
-148.99
-92.02
-39.59
7.02
47.54
80.97
106.57
124.80
137.14
146.16
154.35
162.75
169.49
172.37
169.32
159.79
144.92
126.54
107.35
89.88
74.88
59.15
39.45
13.33
-20.34
-56.65
-92.25
-124.52
-151.65
-174.30
-197.74
-226.40
-262.00
-302.83
-344.99
-385.06
-420.03
-447.37
-445.04
-402.56
-325.00
-230.70
-138.66
-59.40
4.31
50.14
85.55
113.86
131.76
135.35
122.81
94.87
53.65
1.55
-57.46
-116.46
-167.84
-206.23
-227.88
-231.49
-218.80
-194.13
-163.09
-130.24
-97.45
-65.90
-37.78
-15.03
1.54
12.83
21.35
30.02
41.04
55.39
71.74
87.05
98.46
105.12
108.48
111.59
118.17
131.48
153.68
184.72
221.78
259.76
292.28
313.56
320.11
312.45
295.01
274.57
257.48
247.01
242.34
239.41
233.44
221.17
202.13
177.88
149.99
118.74
83.04
41.91
-3.51
-49.24
-89.41
-118.94
-136.25
-144.47
-149.48
-156.66
-168.03
-181.60
-193.28
-199.87
-200.87
-197.97
-193.01
-186.29
-176.62
-163.14
-146.92
-130.82
-117.61
-107.26
-96.08
-78.53
-50.47
-12.46
30.19
69.77
99.95
118.61
127.99
132.83
138.10
147.61
163.39
185.69
212.77
240.29
261.97
271.33
264.13
240.26
204.09
162.51
121.81
85.12
51.86
19.26
-14.95
-50.25
-83.45
-109.87
-125.57
-128.75
-120.24
-102.75
-80.17
-56.87
-36.69
-22.76
-17.16
-20.62
-32.41
-50.52
-71.82
-92.09
-106.46
-110.23
-100.15
-75.83
-40.59
-0.83
35.93
63.57
79.41
84.59
83.23
80.57
81.62
90.03
107.62
134.21
167.46
202.68
233.65
254.08
259.11
247.14
219.82
181.13
135.65
87.12
37.97
-9.88
-53.57
-88.76
-110.29
-114.50
-101.36
-75.48
-44.90
-18.25
-1.72
2.86
-2.22
-12.58
-24.11
-35.28
-47.64
-64.81
-90.24
-125.01
-166.46
-208.63
-244.02
-266.08
-271.64
-261.74
-241.12
-216.21
-193.26
-176.84
-169.55
-172.02
-183.12
-199.98
-218.31
-233.20
-240.70
-239.15
-230.03
-217.52
-206.61
-200.82
-200.26
-201.26
-197.90
-184.85
-159.81
-124.38
-83.24
-41.50
-2.59
32.80
65.89
98.37
131.06
163.82
196.42
228.63
259.89
287.80
307.98
315.33
307.08
285.33
257.08
231.24
213.76
204.52
197.80
186.52
167.11
141.91
117.20
98.18
84.38
68.88
42.36
-0.65
-57.00
-114.85
-158.48
-175.21
-160.88
-121.00
-67.50
-13.28
32.61
66.82
90.46
105.81
113.60
112.39
100.38
77.88
48.33
17.32
-10.74
-35.28
-60.14
-91.44
-134.11
-189.28
-253.70
-321.24
-384.67
-436.83
-470.98
-480.90
-461.91
-412.82
-337.14
-243.17
-141.58
-42.13
49.02
129.50
199.69
260.81
313.63
358.38
395.18
424.28
445.44
457.49
458.42
446.25
419.93
380.47
330.71
274.20
213.71
150.68
85.93
21.23
-39.38
-90.01
-124.74
-140.06
-136.54
-118.43
-91.53
-60.46
-26.98
9.19
48.33
88.63
125.71
154.00
169.27
170.32
158.96
138.57
112.19
81.70
48.35
13.80
-18.80
-44.97
-60.36
-62.66
-52.84
-34.82
-14.12
4.16
16.69
22.43
22.24
17.84
10.94
2.59
-6.88
-17.51
-29.20
-41.24
-52.26
-60.69
-65.47
-66.46
-64.49
-60.71
-56.04
-50.68
-44.25
-36.24
-26.68
-16.46
-6.99
0.20
4.05
4.19
0.70
-6.02
-15.45
-26.86
-39.26
-51.37
-61.87
-69.90
-75.13
-77.94
-78.97
-78.59
-76.33
-71.02
-61.09
-45.11
-22.54
5.54
36.27
65.36
88.04
100.59
101.43
91.43
73.08
49.10
20.99
-11.18
-47.78
-87.91
-128.39
-164.12
-189.92
-202.91
-203.58
-195.24
-182.25
-168.06
-154.31
-141.32
-129.10
-117.99
-108.78
-101.85
-96.51
-90.91
-82.76
-70.27
-52.60
-30.09
-3.67
25.35
55.45
84.63
110.59
130.92
143.90
149.27
148.53
144.60
140.67
139.13
140.69
144.48
148.85
152.14
153.23
151.13
144.68
132.48
113.76
89.36
62.18
36.67
16.97
5.16
0.32
-0.89
-2.57
-7.99
-18.69
-34.71
-55.24
-79.30
-105.57
-132.13
-156.12
-174.20
-183.37
-181.96
-170.13
-149.84
-124.61
-98.32
-74.60
-56.02
-43.66
-36.99
-34.20
-32.79
-30.22
-24.70
-15.27
-2.17
13.46
29.90
45.56
59.46
71.75
83.54
96.25
110.81
126.65
141.67
152.82
157.07
152.64
139.70
120.31
97.70
75.25
55.52
40.03
29.31
23.16
21.04
22.05
24.95
28.08
29.51
27.31
19.96
6.66
-12.66
-37.23
-65.64
-95.98
-126.00
-153.43
-176.48
-194.14
-206.32
-213.61
-216.53
-215.20
-209.11
-197.48
-179.94
-157.04
-130.34
-101.98
-73.75
-46.28
-18.87
10.19
42.77
79.96
121.55
165.71
208.73
245.46
270.14
278.00
267.07
239.36
200.59
158.50
120.35
90.54
69.92
56.28
45.93
34.97
20.27
-0.48
-28.61
-63.93
-104.32
-145.39
-181.35
-206.48
-217.13
-212.80
-196.18
-171.98
-145.15
-119.50
-96.86
-77.43
-60.68
-46.15
-33.80
-23.70
-15.44
-7.79
0.90
11.98
25.57
40.34
54.06
64.76
71.70
75.76
79.11
84.29
93.26
106.72
123.71
141.79
157.52
167.31
168.35
159.57
142.18
119.25
94.85
72.60
54.69
41.44
31.64
23.48
15.25
5.98
-4.70
-16.78
-30.25
-45.17
-61.62
-79.45
-98.07
-116.38
-132.90
-146.19
-155.14
-159.25
-158.82
-154.42
-146.70
-136.03
-122.46
-105.86
-86.40
-64.64
-41.55
-18.45
3.50
23.38
40.62
54.96
66.43
75.30
82.03
87.36
92.00
96.62
101.47
106.20
110.01
111.90
111.18
107.93
103.09
98.08
94.39
92.69
92.70
93.33
92.94
89.97
83.55
73.49
60.29
44.77
27.54
8.58
-12.65
-37.00
-64.71
-94.66
-124.21
-149.75
-167.81
-176.21
-175.03
-166.37
-153.69
-140.53
-129.60
-122.10
-117.62
-114.30
-109.43
-100.20
-84.63
-62.47
-35.32
-6.32
20.89
43.18
58.66
66.75
68.21
64.79
58.80
52.96
49.64
50.19
54.56
61.25
68.00
72.68
74.03
71.65
65.74
56.51
44.15
29.02
12.03
-5.20
-20.92
-33.75
-43.09
-48.92
-51.16
-49.49
-43.63
-34.18
-22.97
-12.82
-6.22
-4.17
-5.73
-8.87
-11.73
-13.29
-13.34
-11.37
-6.10
4.16
20.02
39.67
58.76
71.81
74.69
66.35
49.16
27.55
6.15
-11.76
-24.74
-32.85
-36.96
-38.12
-37.23
-34.91
-31.32
-26.33
-19.84
-12.12
-3.84
3.94
10.19
14.40
16.54
17.25
17.61
18.99
22.88
30.69
43.04
59.33
77.27
92.78
101.01
97.84
81.52
53.69
19.25
-15.14
-43.08
-60.17
-65.31
-60.23
-48.58
-34.49
-21.51
-12.20
-8.00
-9.34
-15.84
-26.61
-40.25
-55.20
-69.96
-82.94
-92.68
-97.92
-97.75
-91.92
-81.07
-66.39
-49.27
-31.01
-12.42
6.02
23.92
41.07
57.42
73.17
88.79
104.55
119.77
132.59
140.21
139.85
130.16
112.06
88.55
63.66
40.87
21.92
6.79
-5.76
-17.20
-28.44
-39.63
-50.35
-59.96
-67.96
-73.93
-77.50
-78.38
-76.66
-72.70
-67.14
-60.66
-53.72
-46.67
-39.67
-32.87
-26.50
-20.89
-16.10
-11.73
-6.80
0.30
11.06
26.19
45.11
65.62
84.53
98.71
106.18
106.55
101.21
92.32
81.78
70.69
59.12
46.70
33.24
19.08
4.98
-8.39
-20.85
-32.91
-45.34
-58.53
-71.94
-84.21
-93.53
-98.45
-98.49
-94.31
-87.21
-78.61
-69.59
-60.51
-51.33
-41.98
-32.56
-23.53
-15.42
-8.46
-2.22
4.03
11.02
18.99
27.37
35.10
41.17
45.11
47.31
48.83
51.08
55.47
63.19
74.80
89.91
106.82
122.67
134.29
139.32
137.23
129.45
118.46
106.39
93.99
80.51
64.51
44.96
21.77
-4.39
-32.64
-62.34
-93.07
-123.96
-153.34
-178.86
-198.09
-209.38
-212.37
-207.79
-197.06
-181.72
-162.91
-141.60
-118.67
-95.06
-71.86
-50.31
-31.37
-15.87
-4.19
3.87
8.90
12.00
14.58
18.08
23.50
31.26
41.02
52.02
63.52
74.82
85.35
94.60
101.83
106.20
106.97
103.89
97.27
88.25
78.28
68.87
61.20
55.83
52.72
51.32
50.90
50.78
50.68
50.38
49.85
48.84
46.82
43.12
37.11
28.32
16.61
2.34
-13.50
-29.06
-41.94
-49.78
-51.04
-45.84
-36.27
-25.65
-17.54
-14.56
-17.54
-25.46
-35.99
-46.08
-52.94
-54.68
-50.68
-41.76
-29.92
-17.76
-7.78
-1.94
-1.12
-5.23
-13.34
-23.71
-34.34
-43.24
-48.86
-50.53
-48.65
-44.39
-39.36
-34.78
-31.10
-28.06
-24.75
-20.27
-14.19
-6.86
0.71
7.23
11.97
15.27
18.45
23.27
31.04
41.85
54.44
66.66
75.98
80.23
78.23
70.01
56.90
41.40
26.48
14.99
8.88
8.36
11.96
17.23
21.42
22.47
19.40
12.21
1.82
-10.12
-21.54
-30.45
-35.27
-35.57
-32.11
-26.62
-21.21
-17.66
-16.83
-18.65
-22.31
-26.47
-29.90
-31.57
-30.88
-27.87
-23.14
-17.72
-12.82
-9.24
-7.18
-6.29
-5.82
-5.10
-4.12
-3.22
-2.85
-3.13
-3.42
-2.54
0.75
6.97
15.77
25.74
35.17
42.45
46.43
46.55
42.91
36.23
27.87
19.86
14.23
12.59
15.27
21.02
27.39
31.60
31.57
26.51
16.96
4.22
-10.20
-25.13
-39.81
-53.58
-65.96
-76.40
-84.37
-89.45
-91.54
-90.71
-87.14
-81.17
-73.08
-63.33
-52.39
-40.68
-28.56
-16.41
-4.72
5.87
14.54
20.74
24.29
25.59
25.67
25.64
26.46
28.49
31.29
33.83
34.94
33.69
29.73
23.62
16.40
9.41
3.93
0.84
0.58
3.15
7.78
13.13
17.56
19.41
17.92
13.65
8.46
4.97
5.53
10.95
20.24
30.83
39.52
43.77
42.67
36.75
27.58
16.64
4.75
-7.86
-21.05
-34.17
-45.84
-54.24
-57.91
-56.28
-49.85
-39.80
-27.30
-13.32
1.50
16.43
30.39
42.04
50.18
54.12
53.95
50.37
44.21
36.23
27.01
17.10
7.33
-1.06
-6.69
-8.44
-5.94
0.20
8.71
18.04
26.78
34.01
39.19
42.10
42.73
41.01
36.96
30.86
23.26
14.94
6.91
0.12
-4.68
-7.04
-7.10
-5.42
-2.90
-0.58
0.58
-0.18
-3.26
-8.73
-16.47
-26.24
-37.57
-49.77
-61.87
-72.59
-80.48
-83.92
-81.44
-71.95
-55.14
-31.59
-3.05
27.54
56.41
79.41
93.30
97.05
93.27
88.19
90.17
106.37
139.05
183.47
228.12
258.46
262.18
234.08
177.88
104.14
26.03
-45.56
-104.61
-150.19
-184.40
-210.25
-230.25
-246.33
-260.11
-272.45
-282.68
-287.85
-283.67
-266.33
-235.58
-195.99
-155.98
-124.56
-106.87
-101.80
-102.42
-99.52
-86.25
-61.25
-28.95
3.42
29.71
48.31
62.81
79.71
104.26
136.50
170.06
194.40
199.83
181.92
144.08
95.82
48.96
13.18
-6.04
-7.11
9.26
41.25
85.09
133.83
176.60
200.96
197.49
164.18
108.34
44.11
-13.04
-52.08
-69.82
-70.45
-62.10
-52.53
-46.31
-44.59
-46.39
-50.42
-55.90
-62.27
-68.67
-73.60
-74.80
-70.19
-58.10
-37.95
-10.69
20.55
51.11
75.50
89.26
90.82
82.17
68.13
54.21
44.47
40.13
40.16
42.49
45.78
49.89
55.27
61.65
67.17
68.87
63.80
51.08
32.56
12.46
-4.47
-15.11
-19.59
-21.10
-24.33
-33.14
-48.89
-69.96
-92.80
-113.67
-130.04
-140.75
-145.20
-142.67
-132.09
-112.83
-85.73
-53.84
-21.60
6.45
27.37
40.54
47.39
50.09
50.45
49.27
46.28
40.88
32.66
22.32
11.64
3.33
-0.12
2.54
10.52
20.88
29.64
33.45
31.13
23.89
14.36
4.92
-3.41
-10.78
-17.99
-25.64
-33.81
-41.97
-49.26
-54.98
-58.94
-61.40
-62.24
-61.68
-60.28
-58.98
-58.66
-59.86
-62.75
-67.42
-73.70
-79.37
-82.09
-80.34
-74.37
-65.90
-57.17
-50.04
-45.48
-42.93
-37.49
-23.75
1.80
39.16
85.07
134.90
183.83
227.79
264.17
295.82
326.86
360.26
395.84
430.68
461.07
483.52
495.78
475.29
410.61
307.03
187.02
76.75
-8.00
-64.82
-100.09
-122.89
-140.90
-155.36
-164.96
-167.97
-162.99
-151.53
-134.51
-112.63
-87.55
-62.28
-38.17
-16.78
0.22
10.88
13.79
9.40
-0.48
-14.38
-29.53
-41.77
-48.14
-47.64
-41.66
-33.15
-24.97
-19.34
-17.61
-20.24
-26.30
-34.67
-44.62
-56.29
-70.35
-87.02
-105.82
-125.51
-144.71
-162.18
-177.49
-191.13
-204.32
-218.62
-234.80
-252.15
-267.78
-277.10
-274.58
-255.80
-219.31
-167.32
-105.04
-38.87
25.08
82.28
129.34
163.77
183.39
186.63
173.40
145.85
108.67
68.16
31.09
2.68
-13.73
-17.61
-11.62
-0.78
8.98
13.03
9.28
-0.61
-12.52
-20.78
-20.81
-11.19
6.10
26.60
45.99
60.86
74.92
90.28
107.63
125.40
140.44
150.64
153.72
153.36
153.44
156.05
159.64
160.27
154.93
140.68
116.90
85.81
52.27
21.00
-4.22
-22.44
-34.44
-42.56
-49.89
-59.26
-72.81
-91.24
-115.23
-143.96
-174.65
-201.75
-218.85
-221.56
-209.37
-186.09
-157.81
-132.07
-113.79
-103.97
-100.32
-100.36
-104.17
-114.01
-131.52
-154.74
-179.33
-197.84
-201.84
-184.84
-145.86
-90.36
-27.65
32.75
83.63
117.64
129.42
116.61
80.34
24.29
-46.26
-124.58
-202.76
-255.66
-263.16
-222.64
-151.91
-75.24
-9.39
39.17
70.94
89.80
100.93
106.56
107.99
106.92
106.38
109.06
115.80
125.89
137.92
150.56
160.19
163.21
157.86
146.14
133.32
125.33
126.60
137.74
155.58
172.17
179.78
175.15
160.88
142.56
124.20
106.11
84.43
56.19
20.81
-17.89
-52.85
-76.94
-86.26
-81.78
-68.05
-50.29
-31.04
-11.06
9.58
29.32
44.11
48.19
36.79
7.93
-35.66
-82.40
-118.53
-132.48
-119.31
-82.72
-33.72
13.22
43.46
48.27
28.36
-7.74
-47.96
-81.57
-102.63
-110.54
-108.66
-103.91
-102.15
-105.54
-113.55
-125.10
-139.46
-155.32
-169.62
-165.05
-130.87
-71.75
-5.45
49.41
83.26
96.72
97.25
93.55
91.53
91.16
87.00
74.51
52.20
23.11
-6.95
-29.96
-39.12
-32.23
-14.08
7.61
26.74
41.35
53.01
64.36
76.99
90.63
102.49
108.33
105.17
92.90
73.81
50.93
25.97
-1.08
-30.25
-61.29
-92.10
-117.59
-130.77
-126.08
-102.70
-65.98
-25.34
9.32
31.50
39.90
37.73
30.36
22.36
16.05
11.61
8.29
5.28
2.01
-1.86
-6.69
-12.47
-18.82
-24.93
-29.69
-32.28
-32.69
-31.26
-28.67
-25.37
-21.15
-15.41
-7.56
2.34
13.36
24.00
33.06
39.53
42.31
39.90
30.44
12.98
-11.04
-37.74
-62.13
-80.25
-92.50
-103.75
-120.68
-147.45
-182.12
-216.46
-239.49
-242.84
-224.02
-188.33
-145.68
-105.86
-74.79
-53.55
-39.77
-29.87
-25.70
-27.74
-35.92
-48.79
-63.25
-75.38
-81.99
-82.04
-77.07
-70.55
-65.64
-64.63
-67.92
-74.13
-80.89
-86.04
-88.58
-88.89
-88.33
-87.70
-87.13
-85.83
-82.23
-74.80
-62.58
-45.69
-25.20
-2.59
21.35
46.69
74.42
106.47
144.89
191.06
244.58
302.64
359.92
409.47
444.57
460.61
456.82
436.05
403.69
365.88
328.01
294.35
268.24
252.46
249.00
258.20
278.20
305.22
334.84
362.94
386.36
402.32
408.06
400.99
379.74
345.48
302.24
255.91
211.86
173.07
139.46
109.15
80.33
52.73
27.95
8.08
-5.86
-14.91
-21.63
-29.41
-41.03
-57.51
-78.28
-101.62
-125.65
-149.44
-173.36
-198.74
-227.34
-260.97
-300.87
-347.69
-400.49
-455.87
-507.50
-546.79
-565.28
-557.81
-525.08
-473.75
-414.23
-356.46
-306.71
-266.11
-232.17
-201.57
-172.74
-146.44
-124.46
-107.91
-95.81
-85.30
-73.01
-56.35
-34.10
-6.15
27.02
64.57
104.48
143.14
175.47
196.15
201.78
192.52
172.38
147.85
125.42
109.23
100.27
96.84
96.17
95.98
95.02
92.76
88.80
82.65
74.04
63.30
51.73
41.06
32.94
28.10
25.98
25.18
24.17
21.99
18.42
13.96
9.47
5.86
4.09
5.12
9.69
17.74
27.95
37.70
43.82
43.75
36.70
24.13
9.25
-4.13
-13.17
-16.84
-15.95
-12.17
-7.12
-1.49
5.03
13.16
23.39
35.14
46.71
55.61
59.70
57.79
50.32
39.44
28.22
19.76
16.33
18.78
26.39
37.58
50.44
63.64
76.76
90.02
103.64
117.43
130.47
141.51
149.72
155.25
159.47
164.58
172.54
184.29
199.35
216.04
232.08
245.19
253.78
257.17
255.93
251.89
247.94
247.11
251.61
261.86
276.03
290.70
301.98
306.84
303.95
293.62
276.83
254.53
227.35
196.01
161.95
127.67
96.08
69.38
47.54
29.01
10.47
-11.27
-37.49
-66.73
-95.45
-119.91
-137.95
-150.64
-160.74
-172.19
-187.94
-208.69
-233.15
-258.91
-283.08
-302.05
-312.06
-306.96
-283.30
-242.36
-191.36
-141.47
-102.93
-79.92
-68.28
-61.02
-46.15
-20.73
10.03
35.91
47.42
40.47
17.37
-15.89
-59.31
-104.36
-150.93
-199.35
-248.27
-294.30
-333.58
-364.04
-386.63
-413.83
-441.28
-473.78
-513.93
-561.20
-611.51
-658.09
-693.10
-709.99
-717.05
-703.51
-675.03
-638.97
-601.24
-563.99
-525.74
-483.81
-366.15
-266.18
-176.87
-105.72
-57.29
-30.96
-21.03
-19.61
-20.34
-21.24
-36.65
-59.73
-94.70
-140.79
-191.19
-235.06
-261.68
-264.79
-244.95
-217.39
-181.81
-146.31
-115.12
-88.37
-64.05
-40.11
-15.97
7.58
24.08
39.51
55.12
72.61
92.79
114.57
135.10
150.47
157.20
150.56
133.37
107.40
75.52
41.07
7.07
-23.80
-49.20
-67.16
-77.09
-77.21
-67.95
-50.94
-28.62
-3.53
22.59
49.21
76.77
106.05
136.99
168.26
197.36
221.41
238.27
247.55
250.28
248.77
245.79
244.05
246.03
253.13
264.39
275.36
278.24
264.12
227.12
168.17
96.20
25.34
-30.47
-62.99
-72.16
-64.44
-48.43
-30.27
-11.68
8.94
33.63
62.67
94.17
125.74
156.39
187.28
220.79
258.50
299.39
339.75
374.20
398.05
409.33
409.29
401.62
390.70
379.77
370.09
361.31
352.33
342.40
331.62
320.66
310.27
300.79
291.88
282.65
271.89
258.41
241.51
221.06
197.63
172.20
146.06
120.36
96.03
73.62
53.62
36.44
22.43
11.87
4.62
0.24
-2.10
-3.25
-4.01
-4.90
-6.44
-9.46
-14.93
-23.81
-36.29
-51.47
-67.17
-80.63
-89.44
-92.47
-90.36
-84.93
-78.56
-73.23
-70.05
-69.17
-70.11
-72.19
-74.66
-76.92
-78.21
-77.94
-75.73
-71.61
-66.07
-59.77
-53.41
-47.39
-41.82
-36.51
-31.25
-25.94
-20.62
-15.51
-10.83
-6.86
-3.94
-2.35
-2.27
-3.68
-6.12
-8.86
-11.09
-12.16
-11.78
-10.33
-8.68
-8.07
-9.67
-14.11
-21.12
-29.61
-37.88
-44.22
-47.39
-46.95
-43.31
-37.42
-30.37
-23.02
-15.95
-9.36
-3.42
1.65
5.56
8.08
9.07
8.83
7.79
6.45
5.19
4.04
2.72
0.93
-1.46
-4.35
-7.29
-9.84
-11.71
-12.77
-13.15
-13.14
-13.02
-13.04
-13.27
-13.65
-14.04
-14.19
-13.91
-13.14
-11.95
-10.43
-8.67
-6.54
-3.92
-0.89
2.22
4.83
6.33
6.38
5.11
3.00
0.70
-1.20
-2.51
-3.31
-3.93
-4.73
-5.95
-7.67
-10.03
-13.16
-17.01
-21.46
-26.02
-30.10
-33.07
-34.68
-35.04
-34.68
-34.15
-33.76
-33.43
-32.73
-31.30
-29.04
-26.15
-23.08
-20.19
-17.69
-15.56
-13.85
-12.73
-12.42
-13.15
-14.79
-16.93
-18.93
-20.23
-20.53
-19.95
-18.85
-17.58
-16.45
-15.49
-14.69
-13.98
-13.39
-12.96
-12.81
-12.85
-12.96
-12.98
-12.72
-12.25
-11.71
-11.31
-11.19
-11.39
-11.85
-12.47
-13.32
-14.32
-15.45
-16.61
-17.53
-17.98
-17.86
-17.07
-15.58
-13.49
-10.83
-7.77
-4.56
-1.37
1.54
3.99
5.91
7.31
8.14
8.43
8.20
7.49
6.54
5.56
4.67
3.83
2.88
1.62
-0.04
-1.93
-3.72
-4.77
-4.52
-2.72
0.33
3.65
6.03
6.34
4.04
-0.68
-6.88
-13.33
-18.96
-23.09
-25.68
-26.80
-26.56
-24.95
-22.01
-17.94
-13.28
-8.83
-5.33
-3.35
-3.00
-3.92
-5.44
-6.85
-7.59
-7.37
-6.21
-4.39
-2.29
-0.34
1.12
1.97
2.22
1.88
1.08
-0.09
-1.54
-3.19
-4.79
-6.15
-7.06
-7.51
-7.78
-8.19
-9.11
-10.62
-12.48
-14.26
-15.51
-15.94
-15.63
-14.97
-14.37
-14.18
-14.51
-15.27
-16.14
-16.71
-16.38
-14.75
-11.66
-7.27
-2.10
3.18
7.99
11.90
14.74
16.57
17.49
17.58
16.94
15.62
13.82
11.71
9.46
7.21
5.00
2.90
0.95
-0.77
-2.15
-2.99
-3.18
-2.69
-1.68
-0.47
0.65
1.35
1.52
1.18
0.61
0.11
-0.04
0.17
0.62
1.11
1.40
1.39
1.02
0.35
-0.50
-1.38
-2.16
-2.67
-2.81
-2.56
-2.02
-1.41
-0.91
-0.62
-0.50
-0.43
-0.25
0.09
0.57
1.07
1.44
1.64
1.71
1.82
2.16
2.90
4.04
5.49
7.11
8.67
10.02
11.00
11.47
11.27
10.28
8.34
5.47
1.83
-2.41
-6.93
-11.42
-15.65
-19.37
-22.44
-24.76
-26.31
-27.12
-27.34
-27.07
-26.36
-25.17
-23.42
-21.03
-18.05
-14.64
-10.99
-7.38
-3.95
-0.71
2.30
5.09
7.50
9.36
10.44
10.69
10.15
9.08
7.86
6.82
6.26
6.19
6.45
6.70
6.58
5.84
4.36
2.25
-0.21
-2.63
-4.71
-6.18
-6.90
-6.86
-6.20
-5.16
-4.07
-3.20
-2.76
-2.83
-3.46
-4.56
-6.00
-7.61
-9.24
-10.64
-11.58
-11.88
-11.47
-10.36
-8.68
-6.57
-4.14
-1.58
1.05
3.62
6.01
8.07
9.64
10.57
10.82
10.43
9.53
8.34
7.05
5.83
4.76
3.85
2.96
2.09
1.25
0.54
0.10
0.07
0.39
0.88
1.21
1.06
0.29
-0.93
-2.29
-3.35
-3.86
-3.79
-3.42
-3.13
-3.20
-3.74
-4.65
-5.68
-6.51
-6.97
-6.86
-6.19
-4.91
-3.11
-0.97
1.14
2.93
4.23
4.96
5.34
5.73
6.41
7.36
8.38
9.07
9.18
8.69
7.80
6.86
6.20
5.89
5.76
5.58
5.12
4.28
3.19
1.99
0.90
-0.03
-0.84
-1.63
-2.43
-3.13
-3.64
-3.74
-3.40
-2.69
-1.85
-1.20
-0.99
-1.33
-2.17
-3.25
-4.12
-4.48
-4.12
-3.16
-1.85
-0.43
0.97
2.33
3.59
4.79
5.79
6.54
7.05
7.35
7.56
7.79
7.94
7.83
7.39
6.81
6.47
6.77
7.89
9.53
11.22
12.29
12.23
10.90
8.53
5.77
3.02
0.53
-1.75
-3.73
-5.22
-6.00
-5.89
-4.90
-3.11
-0.87
1.34
3.10
4.28
5.02
5.44
5.76
6.16
7.25
9.39
12.60
16.66
21.28
26.24
30.77
34.32
36.75
39.35
42.82
47.29
52.29
57.48
62.79
67.08
69.44
69.85
71.21
74.98
81.43
89.46
98.07
106.63
112.88
114.70
111.41
106.99
103.40
100.97
97.99
92.58
82.49
62.59
27.60
-24.93
-89.49
-160.63
-232.89
-302.08
-363.89
-399.20
-392.45
-341.53
-281.30
-226.48
-182.86
-145.11
-112.85
-85.73
-62.66
-44.62
-33.57
-30.58
-31.73
-35.80
-43.31
-56.51
-77.07
-106.23
-140.34
-174.56
-201.75
-211.98
-201.23
-172.02
-132.80
-94.11
-64.96
-51.04
-53.10
-67.55
-86.16
-103.56
-117.19
-126.45
-130.71
-128.48
-118.46
-100.70
-76.11
-45.22
-10.86
24.11
57.96
90.75
123.94
159.54
198.87
242.24
288.65
334.70
375.17
404.10
416.58
410.50
387.50
351.90
308.96
262.60
214.51
164.94
114.32
64.59
19.09
-18.63
-46.60
-64.85
-74.68
-77.21
-72.53
-60.35
-41.21
-17.55
6.54
26.70
40.12
46.48
47.49
45.65
42.81
39.74
36.37
32.60
28.66
25.13
22.45
20.72
19.50
18.02
15.71
12.38
8.48
4.80
2.15
0.79
0.31
-0.08
-1.20
-3.35
-6.23
-9.06
-11.07
-11.81
-11.27
-9.90
-8.26
-6.81
-5.88
-5.61
-5.96
-6.75
-7.73
-8.57
-9.00
-9.00
-8.71
-8.40
-8.31
-8.60
-9.17
-9.83
-10.33
-10.43
-10.05
-9.27
-8.22
-7.02
-5.92
-5.15
-4.90
-5.30
-6.37
-8.03
-10.11
-12.41
-14.68
-16.77
-18.61
-20.14
-21.30
-21.98
-22.12
-21.62
-20.63
-19.26
-17.80
-16.31
-14.82
-13.23
-11.50
-9.67
-7.87
-6.23
-4.77
-3.34
-1.73
0.15
2.10
3.73
4.61
4.49
3.45
1.82
0.15
-1.14
-1.79
-1.89
-1.60
-1.10
-0.53
0.03
0.48
0.71
0.60
0.08
-0.83
-1.91
-2.99
-3.96
-4.86
-5.89
-7.28
-9.16
-11.51
-14.16
-16.81
-19.13
-20.76
-21.41
-20.90
-19.21
-16.56
-13.31
-9.90
-6.70
-3.98
-1.81
-0.13
1.13
2.02
2.59
2.81
2.74
2.54
2.36
2.44
2.80
3.47
4.27
5.00
5.47
5.54
5.26
4.73
4.14
3.56
3.20
3.05
3.10
3.27
3.40
3.39
3.14
2.56
1.60
0.33
-1.28
-3.22
-5.46
-7.91
-10.45
-12.85
-14.80
-16.01
-16.24
-15.39
-13.57
-10.96
-7.90
-4.70
-1.65
0.98
3.01
4.38
5.11
5.37
5.38
5.22
5.03
4.84
4.63
4.43
4.39
4.61
5.17
6.00
6.88
7.57
7.85
7.60
6.73
5.36
3.53
1.36
-0.98
-3.31
-5.45
-7.24
-8.66
-9.78
-10.60
-11.23
-11.56
-11.48
-10.97
-10.18
-9.24
-8.36
-7.57
-6.81
-5.98
-4.90
-3.43
-1.54
0.66
3.02
5.25
7.04
8.15
8.41
7.94
7.06
6.08
5.26
4.69
4.28
3.93
3.74
3.76
4.22
5.25
6.65
8.16
9.40
10.09
10.16
9.77
8.94
7.73
6.11
3.92
1.24
-1.69
-4.51
-6.81
-8.29
-9.00
-9.25
-9.34
-9.66
-10.19
-10.79
-11.21
-11.28
-10.94
-10.37
-9.69
-8.87
-7.81
-6.20
-3.99
-1.38
1.27
3.53
5.12
6.03
6.45
6.62
6.79
6.92
6.90
6.69
6.24
5.64
5.01
4.51
4.18
4.00
3.90
3.74
3.54
3.26
2.91
2.56
2.28
2.13
2.22
2.56
3.03
3.46
3.58
3.20
2.30
1.01
-0.45
-1.88
-3.16
-4.38
-5.62
-7.00
-8.43
-9.70
-10.59
-10.87
-10.40
-9.19
-7.46
-5.50
-3.66
-2.21
-1.21
-0.72
-0.68
-0.91
-1.27
-1.60
-1.62
-1.15
-0.08
1.60
3.68
5.92
8.13
10.21
12.11
13.79
15.09
15.82
15.88
15.15
13.67
11.59
9.12
6.52
4.13
2.10
0.55
-0.63
-1.79
-3.33
-5.47
-8.25
-11.38
-14.34
-16.66
-17.99
-18.35
-18.10
-17.73
-17.56
-17.67
-17.69
-16.99
-14.96
-11.30
-6.21
-0.40
5.16
9.42
11.61
11.49
9.62
7.37
6.79
10.08
18.59
32.20
48.70
64.40
75.24
78.11
71.86
57.56
38.00
16.74
-2.73
-17.71
-26.58
-29.05
-25.99
-19.31
-11.36
-4.28
0.47
2.44
1.89
-0.45
-3.83
-7.66
-11.43
-14.69
-17.09
-18.53
-19.21
-19.67
-20.53
-22.18
-24.51
-26.95
-28.66
-28.86
-27.23
-23.92
-19.51
-14.84
-10.68
-7.56
-5.70
-5.03
-5.17
-5.77
-6.60
-7.49
-8.49
-9.59
-10.65
-11.42
-11.52
-10.64
-8.67
-5.89
-2.76
0.14
2.37
3.72
4.24
4.18
3.79
3.25
2.74
2.38
2.22
2.28
2.36
2.09
1.21
-0.41
-2.60
-4.91
-6.87
-8.28
-9.12
-9.56
-9.88
-10.09
-10.10
-9.76
-8.93
-7.63
-5.91
-3.84
-1.40
1.36
4.45
7.68
10.71
13.16
14.61
14.93
14.23
12.77
10.98
9.24
7.72
6.52
5.72
5.36
5.56
6.38
7.68
9.31
11.01
12.41
13.22
13.26
12.41
10.73
8.43
5.81
3.23
1.01
-0.63
-1.58
-1.88
-1.72
-1.27
-0.82
-0.56
-0.67
-1.27
-2.41
-3.89
-5.55
-7.19
-8.54
-9.47
-9.82
-9.52
-8.55
-7.09
-5.34
-3.64
-2.34
-1.61
-1.50
-1.79
-2.13
-2.19
-1.79
-0.92
0.21
1.23
1.95
2.30
2.45
2.64
2.98
3.42
3.71
3.49
2.47
0.70
-1.64
-4.11
-6.18
-7.44
-7.57
-6.47
-4.26
-1.31
1.88
4.51
5.83
5.43
3.33
0.28
-2.64
-4.41
-4.58
-3.51
-2.27
-2.05
-3.70
-7.48
-12.90
-19.10
-25.15
-30.26
-33.79
-35.32
-34.47
-31.05
-25.27
-17.50
-8.46
1.07
10.17
18.11
24.24
28.10
29.59
28.93
26.76
23.80
20.78
18.15
16.09
14.65
13.84
13.68
14.17
15.14
16.17
16.68
16.13
14.20
11.05
7.22
3.56
0.81
-0.60
-0.77
-0.10
0.77
1.16
0.59
-1.23
-4.18
-7.96
-12.06
-15.84
-18.59
-19.85
-19.39
-17.24
-13.71
-9.17
-3.97
1.66
7.65
14.09
20.90
27.86
34.49
39.94
43.42
44.33
42.57
38.56
33.21
27.42
21.93
17.07
12.70
8.65
4.76
1.11
-1.98
-4.30
-5.91
-7.22
-8.83
-11.39
-15.07
-19.63
-24.60
-29.35
-33.44
-36.66
-38.91
-40.10
-40.14
-38.85
-36.23
-32.49
-28.09
-23.66
-19.79
-16.82
-14.80
-13.45
-12.21
-10.62
-8.36
-5.48
-2.29
0.72
3.16
4.82
5.71
6.13
6.35
6.74
7.46
8.51
9.77
11.04
12.10
12.78
13.00
12.85
12.56
12.50
13.09
14.78
17.74
21.76
26.22
30.13
32.55
33.17
32.80
33.32
37.00
45.34
58.09
72.95
86.16
93.69
92.35
80.52
58.20
26.95
-10.46
-49.97
-86.62
-115.32
-131.93
-134.69
-124.79
-105.85
-82.75
-59.97
-40.49
-25.49
-14.86
-7.73
-3.17
-0.50
0.84
1.26
1.21
1.05
1.01
1.00
0.73
-0.15
-1.83
-4.27
-7.13
-9.86
-11.94
-13.08
-13.38
-13.28
-13.36
-13.97
-15.13
-16.36
-17.01
-16.44
-14.52
-11.59
-8.34
-5.52
-3.43
-1.95
-0.66
0.76
2.38
3.83
4.76
5.00
4.70
4.39
4.63
5.82
7.97
10.84
13.98
16.92
19.34
20.92
21.59
21.25
20.05
18.18
15.90
13.51
11.29
9.46
8.11
7.35
7.13
7.40
8.10
8.99
9.86
10.47
10.59
10.10
9.16
7.96
6.80
5.99
5.53
5.29
5.04
4.56
3.74
2.63
1.30
-0.13
-1.49
-2.66
-3.57
-4.35
-5.15
-6.15
-7.45
-8.99
-10.52
-11.70
-12.31
-12.16
-11.27
-9.70
-7.53
-4.88
-2.01
0.80
3.18
4.82
5.60
5.57
4.89
3.80
2.57
1.37
0.43
-0.12
-0.16
0.35
1.38
2.74
4.18
5.51
6.54
7.13
7.17
6.55
5.24
3.28
0.78
-2.06
-5.06
-7.92
-10.51
-12.69
-14.33
-15.35
-15.68
-15.33
-14.41
-13.16
-11.83
-10.67
-9.83
-9.29
-8.91
-8.49
-7.78
-6.67
-5.14
-3.33
-1.40
0.51
2.35
4.09
5.72
7.22
8.52
9.58
10.32
10.81
11.02
11.02
10.68
9.92
8.65
6.98
5.19
3.58
2.47
1.93
1.85
2.00
2.10
2.04
1.85
1.73
1.71
1.73
1.60
1.09
0.24
-0.85
-1.86
-2.63
-3.12
-3.51
-4.07
-4.98
-6.34
-7.94
-9.58
-10.97
-11.86
-12.08
-11.52
-10.12
-7.98
-5.27
-2.25
0.86
3.81
6.44
8.56
10.06
10.97
11.41
11.68
12.16
13.11
14.60
16.48
18.44
20.18
21.44
22.01
21.69
20.16
17.06
12.05
5.16
-3.26
-12.47
-21.56
-29.72
-36.30
-40.99
-43.70
-44.63
-44.03
-42.29
-39.89
-37.40
-35.45
-34.72
-35.67
-38.61
-43.51
-49.92
-57.26
-64.96
-72.59
-80.00
-87.16
-93.89
-99.82
-104.43
-107.38
-108.76
-108.90
-107.75
-104.26
-96.01
-79.85
-53.03
-14.67
33.42
86.58
138.34
182.05
212.44
226.92
225.94
212.53
191.15
166.42
141.85
119.42
99.58
81.76
65.28
49.79
35.35
22.11
9.98
-1.54
-13.01
-24.77
-36.79
-48.44
-58.75
-66.71
-71.51
-72.93
-71.18
-66.99
-61.52
-56.21
-52.74
-52.39
-55.15
-59.21
-60.82
-55.06
-37.36
-5.18
40.46
94.69
149.74
197.16
230.19
245.81
245.09
232.21
212.58
190.81
169.79
150.50
132.79
116.08
99.79
83.28
65.63
45.85
23.28
-1.73
-27.69
-52.36
-73.68
-90.41
-102.58
-111.54
-119.15
-126.81
-134.62
-140.59
-140.67
-129.67
-103.25
-60.44
-5.49
52.09
99.72
125.59
122.73
91.07
37.35
-27.56
-92.06
-146.62
-185.00
-204.36
-204.60
-187.79
-158.14
-121.51
-84.46
-52.86
-30.28
-17.23
-11.65
-10.15
-9.38
-7.24
-3.36
1.44
5.61
7.78
7.28
4.36
0.09
-3.93
-6.21
-6.06
-3.65
-0.13
3.04
4.69
4.36
2.47
-0.05
-2.34
-3.97
-4.89
-5.42
-5.81
-6.12
-6.41
-6.58
-6.60
-6.36
-5.43
-3.01
1.70
9.15
18.99
29.89
39.95
47.23
50.43
49.38
44.96
38.62
31.93
26.19
22.24
20.56
21.24
23.83
27.31
30.01
30.20
26.82
20.03
11.17
2.38
-4.27
-7.54
-7.25
-4.35
-0.27
3.57
6.29
7.62
8.03
8.11
8.21
7.96
6.28
1.90
-5.79
-16.13
-27.32
-37.02
-43.55
-46.49
-46.44
-44.48
-41.37
-37.28
-32.43
-27.71
-24.83
-25.73
-31.18
-39.58
-47.26
-49.83
-44.09
-29.67
-9.06
13.53
33.78
48.71
57.31
59.98
58.02
52.99
46.36
39.34
32.88
27.42
22.90
18.96
15.14
11.11
6.73
2.02
-2.81
-7.34
-10.98
-13.29
-14.14
-14.04
-13.75
-13.93
-14.74
-15.58
-15.55
-13.94
-10.78
-6.80
-3.35
-1.59
-2.04
-4.30
-7.08
-8.65
-7.66
-3.64
2.88
10.53
18.08
25.06
31.95
39.55
48.12
56.71
63.16
65.31
62.05
53.90
42.72
30.81
19.82
10.49
2.98
-2.77
-6.64
-8.56
-8.98
-9.04
-10.16
-13.51
-19.19
-26.05
-32.04
-34.84
-32.83
-25.69
-14.57
-1.70
10.26
19.24
24.19
25.39
24.13
22.05
20.38
19.64
19.73
20.27
20.93
21.51
21.75
21.45
20.40
18.65
16.65
15.13
14.83
16.00
17.93
18.96
17.03
10.40
-1.47
-17.54
-35.35
-51.73
-63.61
-69.04
-67.76
-60.94
-50.88
-40.03
-30.33
-23.02
-18.61
-17.11
-18.34
-22.03
-27.59
-34.13
-40.26
-44.26
-44.70
-40.83
-33.08
-22.95
-12.58
-4.04
1.49
4.11
4.95
5.62
7.52
11.18
16.23
21.62
26.09
28.42
27.88
24.24
18.01
10.36
3.02
-2.43
-5.07
-4.97
-3.29
-1.52
-0.81
-1.39
-2.58
-3.19
-2.29
0.29
3.87
7.25
9.23
9.12
6.90
3.16
-1.37
-6.01
-10.44
-14.68
-18.85
-22.96
-26.76
-29.85
-31.74
-32.26
-31.52
-30.00
-28.26
-26.72
-25.45
-24.19
-22.53
-20.16
-17.22
-14.13
-11.66
-10.34
-10.22
-10.83
-11.32
-11.00
-9.50
-7.18
-4.60
-2.39
-0.85
0.16
0.93
1.85
3.06
4.62
6.44
8.45
10.54
12.50
14.00
14.70
14.40
12.99
10.65
7.81
5.34
4.24
5.47
9.53
16.01
23.63
30.54
35.08
36.43
34.77
31.04
26.34
21.56
17.14
13.18
9.74
6.96
5.04
3.97
3.54
3.28
2.71
1.53
-0.40
-2.89
-5.62
-8.25
-10.39
-11.79
-12.33
-12.05
-11.10
-9.73
-8.06
-6.19
-4.23
-2.18
-0.04
2.12
4.16
5.92
7.18
7.81
7.83
7.35
6.63
5.91
5.36
5.04
4.95
5.04
5.31
5.78
6.40
7.13
7.88
8.50
8.95
9.18
9.09
8.62
7.72
6.40
4.82
3.13
1.42
-0.21
-1.74
-3.20
-4.57
-5.83
-6.96
-7.89
-8.53
-8.89
-8.96
-8.78
-8.49
-8.20
-8.08
-8.28
-8.82
-9.59
-10.37
-10.80
-10.42
-8.85
-5.74
-1.17
4.37
10.09
15.04
18.50
20.13
20.02
18.71
17.03
15.75
15.63
17.23
20.89
26.67
34.16
42.60
50.99
58.36
63.81
66.67
66.50
63.04
56.27
46.45
34.10
20.04
5.19
-9.44
-23.07
-35.12
-45.38
-53.92
-61.03
-67.17
-72.57
-77.34
-81.27
-84.09
-85.71
-86.34
-86.43
-86.30
-86.06
-85.38
-83.71
-80.60
-75.90
-69.99
-63.62
-57.82
-53.43
-51.06
-50.67
-51.50
-52.11
-50.77
-46.01
-36.98
-23.77
-7.06
11.96
31.95
51.36
68.35
80.93
87.36
87.04
80.92
71.58
62.08
54.84
50.68
48.71
47.22
44.72
40.84
36.18
31.82
28.50
26.16
24.25
22.17
19.82
17.67
16.45
16.60
18.08
20.23
22.16
23.27
23.50
23.34
23.39
24.02
25.09
26.14
26.63
26.39
25.76
25.35
25.80
27.25
29.37
31.36
32.37
31.77
29.41
25.58
20.91
16.19
12.36
10.25
10.22
12.10
15.03
17.91
19.93
20.79
20.95
21.08
21.55
22.13
22.09
20.62
17.32
12.48
6.75
0.76
-5.44
-12.35
-20.81
-31.27
-43.73
-57.75
-72.80
-88.59
-105.01
-121.88
-138.32
-152.49
-161.59
-162.84
-154.50
-136.66
-111.57
-82.68
-53.67
-27.29
-4.99
13.01
26.85
36.71
42.38
43.66
40.95
35.65
29.97
26.14
25.61
28.31
32.81
37.08
39.43
39.32
37.37
34.74
32.36
30.36
28.29
25.55
22.16
18.73
16.33
15.71
16.92
19.26
21.71
23.44
24.07
23.76
22.75
21.42
20.01
18.91
18.51
19.31
21.46
24.73
28.34
31.30
32.66
31.97
29.46
25.70
21.45
17.21
13.16
9.29
5.47
1.47
-3.00
-8.32
-14.98
-23.31
-33.26
-44.17
-54.88
-64.00
-70.38
-73.38
-73.00
-69.93
-65.06
-59.42
-53.79
-48.42
-42.95
-36.35
-27.66
-16.44
-3.56
9.01
18.71
23.58
23.11
18.40
11.79
5.73
2.12
1.87
4.89
10.42
17.40
24.67
31.09
35.89
38.59
39.21
38.09
35.66
32.27
28.16
23.66
19.18
15.37
12.87
12.04
12.73
14.31
15.91
16.63
16.04
14.18
11.67
9.44
8.27
8.53
9.91
11.67
12.78
12.44
10.37
6.97
3.13
-0.20
-2.35
-3.23
-3.10
-2.40
-1.49
-0.62
0.03
0.21
-0.38
-1.78
-3.75
-5.82
-7.40
-8.31
-8.91
-10.10
-12.82
-17.69
-24.46
-32.14
-39.18
-44.01
-45.65
-44.00
-39.89
-34.35
-28.21
-21.56
-14.13
-5.77
2.93
10.55
15.54
16.97
15.30
12.17
9.48
8.38
8.63
9.03
8.40
6.73
5.32
6.11
10.46
17.99
26.63
33.49
36.21
34.16
28.45
21.22
14.48
9.40
6.05
3.99
2.75
2.08
2.06
2.89
4.68
7.34
10.61
13.93
16.48
17.33
15.68
11.24
4.41
-3.96
-12.91
-21.58
-29.27
-35.19
-38.50
-38.46
-34.81
-28.05
-19.58
-11.13
-4.26
0.09
1.78
1.16
-1.32
-5.12
-9.58
-13.79
-16.44
-16.32
-12.74
-5.93
2.84
11.69
18.85
23.27
24.97
24.88
24.24
23.95
24.21
24.53
23.97
21.81
17.67
11.81
4.91
-2.13
-8.46
-13.41
-16.68
-18.30
-18.34
-17.04
-14.57
-11.14
-7.27
-3.58
-0.76
0.64
0.53
-0.63
-2.22
-3.63
-4.73
-5.92
-7.79
-10.72
-14.53
-18.50
-21.56
-22.84
-21.91
-18.87
-14.39
-9.26
-4.24
0.15
3.57
5.84
6.92
6.89
6.03
4.65
3.18
2.04
1.53
1.72
2.38
2.95
2.77
1.34
-1.44
-5.12
-8.87
-11.80
-13.29
-13.20
-11.88
-9.84
-7.49
-4.98
-2.14
1.17
4.98
9.00
12.88
16.40
19.73
23.44
28.06
33.85
40.40
46.81
52.01
55.20
55.98
54.44
50.99
46.14
40.57
35.13
30.72
28.15
27.72
29.02
30.96
32.29
32.15
30.54
28.39
26.96
27.12
28.69
30.34
30.06
26.09
17.52
4.60
-11.48
-29.11
-46.44
-61.61
-72.70
-78.13
-77.38
-71.29
-61.85
-51.20
-40.74
-30.50
-19.54
-6.87
7.52
22.10
34.72
43.77
49.27
52.58
55.53
59.27
63.88
68.85
73.30
77.17
81.30
87.18
95.94
107.90
122.45
138.70
156.02
172.71
187.24
198.50
206.37
210.80
210.98
204.92
190.14
164.58
125.02
70.74
5.44
-62.08
-120.88
-161.94
-180.79
-177.84
-157.20
-129.32
-105.47
-93.93
-97.36
-113.71
-138.57
-165.73
-187.86
-198.69
-201.92
-208.60
-232.55
-283.70
-364.65
-470.88
-591.79
-713.97
-791.34
-786.56
-691.20
-534.33
-359.86
-199.15
-63.97
46.16
134.95
205.28
253.29
274.96
271.28
250.84
226.15
207.44
199.80
203.03
214.06
225.04
228.81
222.96
211.40
201.11
197.36
202.07
212.42
223.74
228.81
221.73
200.51
168.03
129.69
89.98
53.16
20.85
-6.42
-30.03
-51.81
-73.10
-93.94
-112.74
-126.34
-130.40
-121.38
-97.62
-61.91
-20.99
16.87
45.27
61.91
68.31
67.63
62.05
52.46
39.26
24.19
11.07
4.45
7.36
19.09
35.42
50.53
60.26
63.22
61.18
57.29
54.12
53.05
54.24
57.23
61.06
63.86
62.71
54.53
37.73
12.98
-16.02
-44.07
-66.54
-81.54
-89.82
-94.40
-98.60
-104.69
-113.50
-124.47
-136.82
-149.74
-160.78
-166.45
-162.86
-147.46
-121.29
-89.27
-57.92
-32.72
-14.84
-0.85
14.59
35.44
61.90
90.23
114.86
130.78
134.45
124.52
102.06
70.60
36.27
6.82
-11.23
-15.82
-10.59
-3.52
-2.72
-12.23
-30.40
-50.81
-65.73
-69.42
-59.94
-39.15
-11.60
17.17
41.26
55.19
56.08
44.04
21.68
-6.92
-37.57
-66.87
-92.05
-110.73
-120.97
-121.61
-113.34
-98.72
-81.19
-63.84
-48.71
-36.10
-25.34
-15.53
-6.03
2.92
10.46
15.53
17.54
16.39
12.94
8.15
2.95
-1.95
-6.27
-9.87
-12.72
-14.64
-15.71
-15.66
-14.63
-12.81
-10.12
-6.16
0.01
9.77
24.81
43.71
66.09
91.50
118.95
146.35
170.33
186.91
192.71
186.27
168.90
144.60
118.00
92.58
69.67
48.56
27.82
6.87
-13.39
-30.70
-42.28
-46.54
-43.78
-35.81
-24.99
-13.11
-0.71
12.88
28.73
47.47
68.31
89.02
106.77
119.24
125.37
125.40
120.31
111.03
98.14
81.93
62.93
42.44
22.50
5.32
-7.47
-15.28
-18.58
-18.30
-15.32
-10.00
-2.27
8.03
20.58
34.46
48.23
60.15
68.71
72.82
72.01
66.42
56.76
44.13
29.97
15.93
3.70
-5.07
-9.08
-7.43
0.09
12.93
29.88
49.13
68.47
85.47
97.61
102.53
98.47
84.70
61.82
31.70
-2.99
-39.34
-74.75
-107.17
-134.98
-156.73
-171.01
-176.67
-173.29
-161.66
-143.71
-122.06
-99.04
-76.01
-53.15
-30.08
-6.86
15.39
34.16
46.33
49.22
41.60
24.11
-1.02
-30.68
-61.50
-90.17
-113.91
-130.61
-139.33
-140.47
-135.68
-127.43
-118.20
-109.79
-102.94
-97.57
-93.00
-88.48
-83.41
-77.25
-69.72
-60.66
-50.33
-39.37
-28.74
-19.25
-11.17
-4.34
1.89
8.17
14.74
21.23
26.88
30.82
32.50
31.97
29.47
25.63
21.04
16.19
11.53
7.51
4.62
3.23
3.49
5.11
7.53
9.84
11.06
10.47
7.82
3.41
-2.01
-7.51
-12.26
-15.73
-17.92
-19.26
-20.30
-21.44
-22.79
-23.95
-24.25
-23.17
-20.43
-16.25
-11.20
-5.80
-0.57
4.16
8.23
11.53
13.92
15.32
15.72
15.24
14.22
12.98
11.82
11.01
10.70
10.93
11.71
12.90
14.17
15.15
15.39
14.57
12.56
9.48
5.67
1.72
-1.73
-4.08
-4.80
-3.70
-0.98
2.71
6.40
9.17
10.54
10.52
9.62
8.42
7.25
5.99
4.48
2.67
1.08
0.66
2.40
6.85
13.73
21.97
29.97
36.30
40.04
40.90
39.19
35.60
31.06
26.50
22.72
20.22
19.03
18.62
17.97
15.91
11.56
4.73
-4.06
-13.54
-22.06
-28.07
-30.41
-28.86
-24.03
-17.42
-10.81
-5.82
-3.22
-2.87
-3.95
-5.37
-6.40
-6.73
-6.51
-5.97
-5.18
-4.09
-2.69
-1.14
0.26
1.21
1.62
1.79
2.21
3.41
5.54
8.33
11.07
13.09
13.91
13.53
12.45
11.29
10.56
10.33
10.32
9.90
8.48
5.64
1.31
-4.23
-10.53
-17.01
-23.02
-27.91
-31.09
-32.08
-30.78
-27.51
-23.06
-18.59
-15.26
-13.76
-14.19
-16.01
-18.40
-20.66
-22.56
-24.20
-25.84
-27.46
-28.64
-28.71
-27.12
-23.81
-19.17
-13.87
-8.47
-3.26
1.78
6.72
11.42
15.59
18.85
21.11
22.50
23.27
23.42
22.62
20.34
16.21
10.44
3.84
-2.30
-6.86
-9.25
-9.63
-8.66
-7.07
-5.37
-3.54
-1.30
1.72
5.46
9.26
11.99
12.42
9.70
3.62
-5.16
-15.36
-25.38
-33.60
-38.60
-39.23
-34.64
-24.40
-8.62
11.92
35.60
60.12
82.58
100.02
110.04
111.40
104.35
90.75
73.55
55.87
40.36
28.53
20.60
15.56
11.42
5.75
-3.37
-16.49
-32.39
-48.21
-60.61
-67.17
-67.55
-63.49
-57.90
-53.24
-50.37
-48.42
-45.42
-39.55
-29.96
-16.88
-1.16
16.23
34.31
51.98
67.72
79.73
86.36
86.71
81.17
71.56
60.62
50.92
44.09
40.29
38.47
37.07
35.01
32.21
29.54
28.50
30.20
34.99
42.30
50.95
59.46
66.32
70.02
69.18
63.00
51.69
36.87
21.10
6.94
-4.11
-12.33
-19.37
-27.07
-36.18
-45.74
-53.53
-57.48
-56.84
-52.41
-46.20
-40.11
-35.21
-31.52
-28.67
-26.40
-25.02
-25.21
-27.29
-31.03
-35.58
-39.99
-43.56
-46.14
-47.86
-48.76
-48.86
-47.91
-45.83
-42.84
-39.58
-36.80
-35.24
-35.32
-37.01
-39.93
-43.22
-45.90
-46.78
-45.05
-40.46
-33.54
-25.65
-18.48
-13.52
-11.26
-11.29
-12.32
-12.87
-11.64
-7.95
-1.75
6.49
15.80
25.02
32.76
37.69
38.99
36.61
31.42
25.00
19.17
15.39
14.49
16.52
20.90
26.76
33.03
38.72
42.78
44.38
42.85
37.91
29.72
19.05
7.07
-4.86
-15.36
-23.48
-28.69
-31.15
-31.33
-29.93
-27.57
-24.63
-21.29
-17.51
-13.28
-8.71
-4.16
-0.13
3.01
5.07
6.18
6.59
6.54
6.05
4.99
3.29
1.18
-0.56
-0.94
0.90
5.23
11.69
19.37
27.30
34.66
40.93
45.99
49.82
52.53
54.21
55.09
55.38
55.25
54.66
53.37
51.08
47.51
42.49
35.95
27.93
18.80
9.35
0.85
-5.18
-7.54
-5.73
-0.28
7.29
14.74
19.70
19.84
13.50
0.01
-19.77
-43.66
-68.61
-91.76
-111.35
-126.93
-138.96
-148.01
-154.12
-156.69
-154.78
-147.62
-134.67
-115.53
-89.98
-58.16
-21.13
18.72
57.70
91.76
117.40
132.69
137.61
133.76
123.76
110.57
96.93
84.81
75.37
68.88
65.01
62.99
61.79
60.25
57.07
51.07
41.60
28.90
14.21
-0.51
-13.27
-22.75
-28.56
-31.14
-31.40
-30.07
-27.30
-22.69
-15.62
-5.42
8.05
24.51
43.05
62.26
80.42
95.67
106.35
110.99
108.65
98.92
82.25
59.90
33.88
6.73
-19.02
-41.16
-58.25
-69.55
-75.29
-76.39
-74.42
-71.55
-70.06
-71.87
-77.71
-86.77
-96.59
-104.03
-106.20
-101.50
-90.17
-74.24
-56.73
-40.74
-28.66
-21.55
-19.30
-20.86
-24.81
-29.79
-34.93
-39.87
-44.34
-47.69
-48.67
-45.49
-36.51
-20.89
0.42
24.52
47.31
65.12
76.34
82.12
85.80
91.19
101.01
114.96
129.61
139.98
142.29
136.04
124.29
112.22
104.83
105.55
114.72
129.82
146.16
158.46
161.82
152.52
129.16
94.12
55.12
22.84
6.67
10.00
28.08
49.59
61.37
54.04
21.70
-31.06
-90.74
-141.22
-172.17
-183.18
-180.62
-171.35
-158.83
-143.35
-123.76
-100.68
-77.64
-59.58
-50.10
-49.37
-54.02
-58.86
-59.69
-54.13
-42.72
-28.45
-15.28
-6.10
-1.33
0.99
3.77
8.98
17.05
26.41
33.99
37.10
33.84
24.85
12.99
1.99
-5.03
-6.39
-2.39
5.04
13.24
19.97
24.07
25.37
23.89
19.31
10.79
-2.91
-22.31
-46.93
-75.58
-106.68
-138.07
-166.68
-188.31
-197.96
-191.61
-168.36
-131.97
-90.13
-52.31
-26.05
-14.49
-16.08
-26.15
-39.37
-51.78
-62.09
-69.37
-72.63
-70.40
-61.37
-45.40
-24.24
-0.75
21.67
40.06
53.16
61.09
64.99
66.33
66.20
65.03
63.22
60.98
58.82
57.45
57.33
58.35
59.81
60.82
61.42
63.27
68.47
78.26
91.85
105.99
116.21
119.16
114.59
103.37
90.28
80.44
77.19
81.57
92.89
109.82
130.46
151.53
167.87
173.77
164.99
142.29
112.82
87.75
76.97
83.48
101.56
118.92
122.90
105.50
67.69
18.46
-29.61
-65.96
-86.29
-93.21
-93.71
-95.52
-105.02
-124.33
-151.57
-182.24
-211.42
-235.99
-254.29
-265.21
-268.19
-264.64
-256.75
-247.01
-237.25
-227.75
-217.45
-203.28
-181.46
-143.75
-90.43
-30.06
24.67
61.54
79.77
82.60
74.39
60.64
46.59
36.48
35.43
48.53
78.82
124.61
177.47
225.67
258.33
268.95
256.63
227.42
190.28
156.33
134.42
127.09
130.35
139.17
150.78
163.47
177.13
190.62
201.10
204.97
199.11
183.90
161.86
136.57
110.14
83.72
57.29
29.09
-2.27
-36.55
-69.06
-94.07
-106.50
-104.21
-87.21
-58.06
-22.49
13.22
43.37
65.56
77.51
78.36
68.56
51.87
43.39
53.81
84.86
111.22
115.73
89.10
37.71
-29.70
-101.80
-169.32
-229.52
-284.19
-336.53
-388.32
-439.21
-486.23
-525.91
-554.30
-569.30
-572.38
-566.42
-554.24
-539.57
-526.05
-516.00
-510.52
-508.74
-509.33
-512.73
-519.34
-504.36
-450.79
-354.03
-224.36
-81.05
58.26
182.73
286.82
369.71
433.17
477.23
502.94
513.01
511.52
503.39
494.61
486.42
478.09
467.60
449.75
419.97
376.09
319.22
252.47
183.47
118.77
63.20
18.93
-15.92
-44.17
-68.30
-89.74
-109.06
-126.20
-140.96
-151.25
-153.28
-143.66
-120.72
-86.36
-46.20
-7.94
21.60
38.55
43.69
40.88
34.33
26.74
18.73
9.79
-0.39
-10.97
-20.69
-28.37
-34.04
-38.87
-44.35
-51.61
-60.46
-69.40
-76.15
-79.24
-76.99
-69.23
-57.10
-42.48
-27.29
-12.86
0.19
11.85
22.25
31.55
39.34
44.90
47.49
46.67
42.62
35.88
27.33
17.79
8.25
-0.86
-9.40
-17.46
-25.18
-32.44
-39.12
-45.14
-50.49
-54.93
-58.48
-61.31
-63.66
-65.85
-68.20
-71.12
-75.05
-80.52
-87.70
-96.82
-108.03
-121.20
-135.84
-151.09
-165.70
-177.97
-187.94
-194.72
-197.29
-194.83
-186.86
-173.38
-154.85
-132.24
-106.89
-80.28
-53.97
-29.58
-8.63
7.72
18.71
24.11
24.22
19.74
11.67
1.21
-10.47
-22.52
-34.18
-44.92
-54.24
-61.67
-66.91
-69.77
-70.21
-68.46
-65.00
-60.39
-55.00
-48.86
-41.66
-32.94
-22.41
-10.08
3.64
18.03
32.23
45.79
58.91
72.32
87.13
104.23
123.89
145.60
168.31
190.74
212.00
231.84
250.64
269.29
289.07
311.36
337.27
366.82
398.13
427.11
448.14
455.81
447.01
422.49
386.65
345.93
306.26
271.11
240.87
213.89
188.09
162.39
137.21
113.96
94.25
79.14
69.04
63.64
62.07
62.90
64.32
64.43
61.76
55.70
46.60
35.62
24.18
13.40
3.78
-4.84
-13.04
-21.38
-29.92
-38.00
-44.17
-46.66
-44.02
-35.92
-23.62
-9.83
1.83
7.96
6.39
-3.12
-18.91
-37.95
-56.77
-72.45
-83.22
-88.72
-89.59
-86.77
-80.86
-71.90
-59.69
-44.41
-27.26
-10.59
2.63
9.73
9.21
1.21
-12.60
-29.52
-46.59
-61.08
-70.82
-74.33
-70.92
-60.89
-45.76
-28.23
-11.78
0.05
4.66
1.22
-9.13
-23.59
-38.58
-50.80
-58.06
-59.51
-55.63
-47.86
-38.11
-28.48
-20.86
-16.58
-16.19
-19.25
-24.46
-30.12
-34.68
-37.26
-37.94
-37.54
-37.18
-37.69
-39.22
-41.21
-42.66
-42.50
-40.07
-35.23
-28.49
-20.84
-13.50
-7.61
-3.90
-2.56
-3.09
-4.47
-5.58
-5.54
-4.06
-1.53
1.31
3.57
4.62
4.22
2.47
-0.23
-3.28
-6.02
-7.73
-7.91
-6.37
-3.41
0.22
3.55
5.72
6.24
5.10
2.80
0.02
-2.56
-4.46
-5.40
-5.33
-4.39
-2.84
-1.09
0.46
1.41
1.59
1.00
-0.15
-1.54
-2.85
-3.80
-4.24
-4.10
-3.48
-2.54
-1.54
-0.73
-0.33
-0.39
-0.79
-1.32
-1.75
-1.89
-1.65
-1.04
-0.22
0.67
1.41
1.93
2.21
2.34
2.44
2.62
2.96
3.42
3.98
4.56
5.18
5.93
6.92
8.29
10.07
12.28
14.74
17.27
19.60
21.56
23.10
24.38
25.76
27.73
30.78
35.18
40.94
47.70
54.87
61.84
68.19
73.92
79.38
85.11
91.63
99.18
107.54
116.14
124.13
130.63
135.01
136.93
136.64
134.91
132.65
130.22
126.84
120.37
108.01
87.62
58.87
24.00
-12.81
-46.85
-74.54
-94.49
-107.40
-115.40
-121.29
-128.36
-140.18
-159.93
-189.08
-225.72
-263.94
-295.10
-310.72
-305.57
-279.49
-236.78
-184.31
-129.29
-77.97
-35.57
-6.26
7.40
5.92
-6.20
-20.81
-28.78
-23.55
-3.55
27.31
61.89
92.84
115.19
127.32
130.14
125.85
116.69
104.76
91.75
79.04
67.50
57.36
48.03
38.52
27.92
15.83
2.78
-10.04
-21.13
-29.34
-34.50
-37.63
-40.64
-45.53
-53.63
-64.92
-78.29
-92.01
-104.37
-114.13
-120.33
-122.19
-119.13
-111.24
-99.67
-86.67
-74.97
-66.66
-62.50
-61.63
-62.15
-62.06
-60.06
-55.84
-50.00
-43.51
-37.21
-31.68
-27.02
-23.06
-19.51
-15.95
-12.13
-7.93
-3.48
0.96
4.97
8.20
10.43
11.72
12.44
13.08
14.22
16.19
19.04
22.44
25.80
28.41
29.60
29.00
26.63
22.98
18.84
15.14
12.64
11.72
12.25
13.60
14.94
15.45
14.59
12.29
8.87
5.04
1.48
-1.23
-2.74
-3.05
-2.40
-1.18
0.14
1.08
1.40
1.04
0.23
-0.64
-1.34
-1.85
-2.38
-3.14
-4.22
-5.26
-5.66
-4.64
-1.71
3.10
9.09
15.12
20.05
23.14
24.54
25.31
27.17
31.97
40.95
54.25
70.76
88.60
105.79
121.15
134.98
149.24
167.17
192.35
227.52
273.36
327.60
384.70
436.67
474.61
491.37
483.73
453.56
407.41
354.36
303.31
260.72
229.53
209.42
198.12
192.83
190.82
189.80
187.82
183.18
174.67
161.74
144.44
123.09
98.12
69.83
38.53
4.78
-30.60
-66.68
-102.50
-137.34
-170.75
-202.50
-232.38
-260.39
-286.89
-312.51
-337.29
-359.78
-376.78
-384.46
-380.72
-367.08
-348.87
-332.99
-324.58
-324.31
-328.64
-332.58
-333.33
-332.51
-335.22
-347.07
-370.70
-404.13
-441.25
-474.00
-494.85
-498.26
-481.43
-444.81
-392.05
-329.60
-265.38
-206.76
-158.49
-121.88
-95.21
-75.16
-58.52
-43.05
-27.61
-11.73
4.77
21.92
39.13
54.88
66.62
71.28
66.32
50.76
25.40
-7.34
-43.76
-79.52
-110.05
-130.62
-136.93
-126.13
-98.81
-60.35
-20.35
10.35
23.90
18.94
1.27
-19.39
-34.13
-39.47
-38.25
-36.90
-40.84
-51.15
-63.90
-72.12
-69.37
-51.60
-17.92
31.39
96.34
176.86
271.11
373.49
474.31
561.33
624.01
656.36
659.06
638.72
604.44
564.30
522.82
480.31
434.05
380.71
316.60
238.83
146.04
38.90
-79.41
-203.38
-326.35
-441.86
-535.45
-592.09
-601.09
-561.50
-483.54
-384.27
-280.31
-183.28
-99.13
-29.23
26.57
68.76
98.34
117.15
127.60
132.78
135.77
138.69
142.83
147.43
150.36
149.22
143.34
131.81
115.33
95.97
76.59
60.77
51.29
49.91
56.92
71.31
90.30
110.31
127.49
138.41
140.96
133.88
116.60
87.85
49.45
4.54
-43.11
-89.95
-133.32
-171.68
-204.46
-231.06
-249.26
-255.21
-245.06
-217.30
-174.57
-123.97
-75.18
-37.12
-14.77
-7.96
-12.91
-25.11
-41.56
-61.31
-84.22
-109.43
-135.50
-158.47
-174.14
-179.51
-173.62
-157.23
-132.04
-99.81
-61.98
-19.47
25.12
68.87
108.82
142.10
166.45
180.83
185.76
182.86
174.71
163.98
152.86
142.54
133.25
124.55
115.88
106.97
97.69
88.41
79.58
71.63
64.66
58.50
52.81
47.30
41.79
36.24
30.85
25.81
21.25
17.26
13.74
10.60
7.71
5.09
2.60
0.40
-1.49
-3.13
-4.57
-5.89
-7.14
-8.26
-8.67
-8.37
-6.92
-3.97
0.59
6.68
13.99
22.04
30.32
38.74
46.49
53.13
58.06
60.59
60.03
55.93
48.29
37.83
25.81
13.78
3.38
-4.38
-9.31
-11.89
-12.98
-13.39
-13.50
-13.28
-12.48
-10.58
-7.27
-2.46
3.67
10.43
16.34
19.31
17.12
8.20
-7.09
-26.26
-45.72
-61.75
-71.98
-76.15
-75.65
-72.50
-68.31
-63.44
-57.08
-48.12
-35.36
-18.22
2.97
27.04
51.81
74.62
92.47
102.59
103.44
95.54
81.40
64.64
49.08
37.80
32.66
33.39
37.96
43.60
48.36
51.31
52.18
51.41
49.76
47.90
45.55
40.95
31.08
12.59
-17.68
-62.06
-120.64
-190.50
-258.49
-307.68
-325.17
-309.04
-267.86
-213.77
-156.82
-102.95
-54.41
-11.19
26.54
58.04
82.77
100.93
113.92
123.69
131.49
137.51
141.48
142.30
138.61
129.52
114.70
94.82
70.99
44.45
16.29
-12.82
-43.69
-79.10
-118.58
-161.06
-202.73
-237.39
-258.10
-259.91
-242.06
-208.38
-165.26
-118.68
-72.74
-29.43
8.93
37.55
49.66
39.75
7.77
-38.07
-82.82
-110.50
-109.86
-78.37
-22.20
47.14
117.52
179.31
226.23
254.82
263.42
252.46
225.03
186.92
145.57
108.31
80.43
63.92
57.70
58.54
62.42
65.77
66.23
62.86
56.21
47.83
39.57
32.69
27.50
23.41
19.44
14.84
9.46
3.96
-0.49
-2.60
-1.36
3.64
12.14
23.31
35.92
48.45
59.40
67.44
71.73
72.15
69.29
64.04
57.18
48.79
38.17
24.20
5.81
-17.55
-45.79
-78.31
-114.22
-152.08
-189.66
-223.69
-250.00
-264.57
-264.76
-250.45
-224.23
-190.67
-154.68
-120.07
-88.69
-60.63
-35.16
-11.71
9.46
27.44
41.20
50.36
55.41
57.54
58.05
57.82
57.12
55.81
53.72
50.87
47.64
44.49
41.73
39.32
36.93
34.06
30.33
25.58
19.97
14.02
8.46
4.03
1.30
0.38
0.86
1.97
2.83
2.86
1.90
0.19
-1.89
-4.00
-6.05
-8.17
-10.60
-13.55
-17.04
-20.79
-24.35
-27.14
-28.62
-28.53
-26.91
-24.19
-20.97
-17.85
-15.21
-13.21
-11.82
-10.93
-10.51
-10.57
-11.08
-11.91
-12.78
-13.31
-13.20
-12.31
-10.81
-9.06
-7.47
-6.37
-5.84
-5.70
-5.66
-5.43
-4.81
-3.80
-2.57
-1.35
-0.35
0.24
0.38
0.21
0.03
0.21
0.97
2.21
3.59
4.57
4.71
3.88
2.35
0.66
-0.56
-0.86
-0.09
1.70
4.29
7.47
11.00
14.65
18.16
21.21
23.48
24.76
24.98
24.22
22.67
20.63
18.45
16.44
14.90
13.99
13.75
14.14
15.06
16.40
18.12
20.10
22.11
23.84
24.87
24.90
23.86
22.07
20.04
18.37
17.42
17.20
17.36
17.40
16.84
15.40
13.07
10.06
6.66
3.14
-0.25
-3.23
-5.53
-6.84
-6.95
-5.86
-3.83
-1.38
0.91
2.65
3.77
4.46
5.10
5.96
7.01
7.97
8.45
8.17
7.13
5.58
3.90
2.43
1.31
0.45
-0.42
-1.67
-3.62
-6.50
-10.29
-14.76
-19.52
-24.13
-28.33
-32.07
-35.46
-38.63
-41.55
-43.98
-45.53
-45.80
-44.49
-41.52
-36.95
-30.99
-24.00
-16.46
-8.93
-1.97
4.04
8.86
12.39
14.64
15.68
15.74
15.33
15.08
15.67
17.43
20.22
23.45
26.43
28.68
30.14
31.14
32.04
32.98
33.73
33.83
32.91
30.86
27.94
24.56
21.14
17.92
14.92
12.05
9.21
6.43
3.75
1.26
-1.00
-3.08
-5.06
-7.01
-8.89
-10.59
-11.89
-12.57
-12.52
-11.76
-10.54
-9.18
-7.95
-7.03
-6.37
-5.80
-5.14
-4.32
-3.37
-2.54
-2.08
-2.23
-2.97
-3.98
-4.41
-3.08
1.33
9.81
22.52
38.37
55.11
69.72
79.14
81.19
75.10
61.77
43.41
22.93
3.06
-14.05
-27.25
-36.27
-41.46
-43.44
-42.91
-40.42
-36.37
-30.90
-23.90
-15.14
-4.40
8.12
21.58
34.31
44.25
49.46
49.00
43.40
34.51
24.77
16.13
9.25
3.35
-3.05
-10.98
-20.09
-28.34
-32.78
-30.84
-21.61
-6.37
11.58
27.91
38.39
39.90
31.04
12.33
-13.81
-43.48
-71.74
-93.53
-104.75
-103.27
-89.59
-66.75
-39.54
-13.22
7.68
20.30
23.72
18.82
7.83
-6.23
-20.05
-30.55
-35.42
-33.63
-25.71
-13.71
-0.59
10.81
18.43
21.54
20.56
16.74
11.60
6.53
2.44
-0.30
-1.62
-1.69
-0.80
0.64
2.17
3.41
4.16
4.17
3.36
1.89
0.30
-0.68
-0.35
1.71
5.60
10.98
16.54
20.69
22.37
21.67
19.64
17.67
16.97
18.42
22.39
27.42
31.39
32.77
31.66
29.45
27.85
28.24
31.67
38.59
46.76
52.89
54.69
52.32
47.69
42.76
38.53
35.08
31.89
25.36
11.08
-14.20
-51.09
-98.75
-156.53
-223.87
-299.28
-362.23
-390.22
-371.88
-315.95
-242.21
-167.76
-101.86
-47.22
-3.02
33.14
60.93
78.52
85.07
82.72
75.67
68.10
63.20
62.75
67.74
76.54
86.34
95.27
103.44
112.15
122.24
134.08
146.47
157.98
165.89
167.31
160.38
144.88
121.89
91.92
58.19
23.45
-9.39
-38.13
-61.50
-78.87
-90.31
-96.67
-99.27
-99.85
-100.51
-102.87
-107.64
-113.78
-118.03
-115.51
-101.87
-75.48
-39.30
-0.37
33.13
55.45
65.43
66.44
63.94
62.38
63.15
64.71
64.29
60.48
54.16
47.91
44.48
45.11
49.20
55.16
61.22
66.00
68.08
65.32
55.33
36.98
12.10
-13.78
-33.43
-41.04
-35.81
-21.98
-7.01
2.24
2.50
-5.44
-18.17
-32.27
-45.38
-56.42
-64.58
-69.01
-69.28
-66.25
-62.28
-59.81
-60.28
-62.60
-64.05
-61.44
-53.23
-39.75
-23.28
-7.10
5.93
14.05
17.46
17.88
17.96
20.45
26.74
36.67
48.46
59.73
67.67
70.13
65.87
54.71
38.18
19.29
2.79
-6.96
-7.72
-1.64
4.99
4.37
-8.85
-34.24
-65.53
-91.88
-104.02
-97.74
-74.99
-41.84
-4.92
30.96
64.32
93.52
116.18
128.78
127.70
111.15
80.05
37.90
-7.98
-48.92
-77.26
-87.93
-80.35
-58.95
-31.51
-6.33
10.98
19.04
20.27
18.46
16.75
16.01
15.22
12.94
8.60
3.09
-2.11
-6.08
-9.24
-12.76
-17.94
-25.35
-34.27
-43.06
-49.77
-53.03
-51.95
-46.59
-37.47
-25.51
-11.50
4.10
21.08
39.24
57.80
74.88
87.32
91.57
84.97
67.32
41.78
14.20
-8.89
-22.83
-26.37
-21.74
-12.91
-3.78
3.38
8.14
10.97
12.30
11.87
9.16
3.95
-3.02
-10.33
-16.15
-19.14
-19.02
-16.44
-12.70
-9.15
-6.75
-5.58
-5.11
-4.45
-2.93
-0.62
1.79
3.30
3.21
1.42
-1.53
-4.59
-6.82
-7.62
-7.09
-5.74
-4.24
-3.09
-2.56
-2.59
-2.84
-2.92
-2.49
-1.38
0.28
2.16
3.90
5.33
6.45
7.45
8.47
9.59
10.57
11.10
10.86
9.70
7.73
5.27
2.73
0.47
-1.23
-2.27
-2.69
-2.66
-2.39
-2.09
-1.87
-1.85
-2.10
-2.68
-3.51
-4.38
-4.97
-4.97
-4.14
-2.44
-0.16
2.24
4.32
5.92
7.10
8.20
9.43
10.81
12.17
13.12
13.40
12.97
12.05
10.90
9.75
8.58
7.19
5.37
3.04
0.47
-1.89
-3.59
-4.34
-4.15
-3.29
-2.15
-1.12
-0.39
0.14
0.59
1.02
1.46
1.79
1.98
2.04
2.03
1.88
1.57
0.88
-0.46
-2.47
-5.00
-7.59
-9.69
-10.77
-10.58
-9.25
-7.21
-5.03
-3.14
-1.73
-0.64
0.36
1.48
2.77
4.04
4.99
5.38
5.09
3.96
1.99
-0.81
-4.36
-8.39
-12.53
-16.34
-19.37
-21.27
-22.01
-21.67
-20.45
-18.51
-15.87
-12.52
-8.46
-3.83
0.99
5.41
8.97
11.29
12.29
12.10
10.95
9.13
6.88
4.36
1.77
-0.54
-2.32
-3.36
-3.67
-3.43
-2.85
-2.11
-1.25
-0.21
1.20
2.90
4.66
6.17
7.10
7.33
7.03
6.57
6.19
6.08
6.11
6.08
5.95
5.73
5.59
5.70
6.11
6.62
6.91
6.67
5.74
4.18
2.12
-0.17
-2.43
-4.40
-5.94
-6.98
-7.56
-7.72
-7.34
-6.41
-4.90
-2.85
-0.47
1.79
3.46
4.05
3.08
0.34
-4.17
-10.12
-16.73
-22.99
-27.80
-30.28
-30.10
-27.59
-23.56
-18.98
-14.73
-11.30
-8.84
-7.25
-6.17
-5.31
-4.44
-3.39
-2.15
-0.80
0.60
2.01
3.51
5.42
8.13
11.92
16.98
23.11
29.75
36.04
40.94
43.50
43.07
39.46
32.93
24.19
14.16
3.96
-5.22
-12.22
-16.11
-16.35
-13.06
-6.98
0.64
8.27
14.48
18.26
19.06
16.80
11.72
4.31
-4.86
-14.91
-24.81
-33.36
-39.33
-41.89
-40.77
-36.54
-30.29
-23.59
-17.91
-14.21
-12.76
-13.16
-14.59
-16.16
-17.32
-17.71
-17.47
-16.89
-16.31
-16.02
-16.14
-16.60
-17.09
-17.09
-15.95
-13.06
-8.06
-1.14
6.89
14.75
20.94
24.13
23.48
18.88
11.02
1.32
-8.31
-16.18
-21.02
-22.41
-20.84
-17.42
-13.49
-10.15
-8.03
-7.09
-7.00
-7.28
-7.53
-7.53
-7.17
-6.35
-4.95
-2.86
0.01
3.60
7.67
11.86
15.75
18.99
21.38
22.94
23.76
24.06
23.99
23.64
23.10
22.39
21.58
20.73
19.95
19.31
18.81
18.35
17.76
16.99
16.02
15.02
14.27
13.92
13.92
14.02
13.75
12.58
10.28
6.90
2.78
-1.55
-5.61
-9.02
-11.59
-13.22
-13.97
-13.96
-13.41
-12.56
-11.67
-10.91
-10.30
-9.74
-9.00
-7.92
-6.40
-4.50
-2.44
-0.46
1.13
2.13
2.49
2.31
1.86
1.45
1.38
1.79
2.72
3.96
5.32
6.52
7.44
7.96
8.09
7.94
7.56
7.04
6.42
5.74
4.99
4.20
3.37
2.53
1.76
1.07
0.57
0.31
0.36
0.72
1.40
2.35
3.39
4.47
5.38
6.07
6.54
6.84
7.11
7.50
8.15
9.03
10.25
11.75
13.54
15.60
17.91
20.46
23.15
25.97
28.80
31.81
35.11
38.76
42.66
46.46
49.75
52.08
53.29
53.39
52.71
51.46
49.80
47.55
44.06
38.46
29.69
16.83
-0.50
-21.86
-45.78
-69.81
-90.87
-106.13
-113.46
-112.19
-103.21
-88.80
-72.09
-56.17
-43.64
-35.98
-33.74
-36.41
-42.75
-50.94
-59.06
-65.39
-68.70
-68.63
-65.49
-60.24
-54.01
-47.86
-42.43
-38.00
-34.49
-31.56
-28.79
-25.70
-22.01
-17.65
-12.79
-7.65
-2.53
2.36
6.90
11.01
14.57
17.48
19.54
20.65
20.80
20.10
18.85
17.47
16.43
16.17
17.05
19.11
22.27
26.17
30.31
34.20
37.20
38.72
38.31
35.77
31.32
25.57
19.37
13.53
8.68
5.04
2.48
0.78
-0.29
-0.75
-0.58
0.21
1.47
2.95
4.26
5.14
5.53
5.51
5.32
5.18
5.24
5.59
6.27
7.19
8.26
9.37
10.35
11.16
11.75
12.09
12.26
12.21
11.85
11.12
10.04
8.69
7.20
5.79
4.49
3.41
2.46
1.54
0.63
-0.28
-1.21
-2.17
-3.21
-4.45
-5.92
-7.59
-9.33
-10.90
-12.14
-12.99
-13.46
-13.64
-13.52
-13.02
-11.98
-10.27
-7.90
-5.00
-1.80
1.41
4.28
6.60
8.17
8.94
8.90
8.24
7.27
6.42
6.10
6.51
7.65
9.16
10.62
11.45
11.37
10.41
9.07
8.00
7.71
8.49
10.12
12.21
14.23
15.76
16.67
17.15
17.57
18.29
19.53
21.23
23.10
24.77
25.79
25.98
25.52
25.08
25.68
28.29
33.40
40.58
48.27
54.00
55.35
50.46
38.99
22.25
2.88
-15.98
-31.27
-40.74
-43.48
-39.67
-30.93
-19.64
-8.56
-0.24
3.43
1.74
-4.74
-14.54
-25.44
-35.26
-42.26
-45.38
-44.53
-40.24
-33.44
-25.26
-16.89
-9.50
-4.28
-2.20
-3.71
-8.74
-16.46
-25.42
-34.03
-40.93
-45.33
-47.28
-47.46
-46.87
-46.60
-47.16
-48.19
-48.70
-47.40
-43.24
-35.99
-26.46
-16.17
-7.14
-1.01
1.45
0.46
-2.61
-5.55
-5.76
-0.90
10.67
29.09
53.10
80.31
107.53
131.71
150.20
160.86
162.34
154.15
136.71
111.70
81.76
49.97
19.01
-9.63
-35.87
-60.36
-83.17
-102.96
-116.64
-120.41
-111.75
-91.14
-63.20
-36.26
-19.87
-21.69
-44.84
-86.60
-139.14
-192.54
-237.63
-269.05
-286.40
-293.57
-296.94
-302.61
-314.10
-331.12
-349.84
-364.30
-368.62
-358.82
-333.73
-294.74
-244.83
-187.33
-125.25
-61.17
2.36
62.37
115.49
158.22
187.88
203.46
206.48
200.80
192.09
186.23
187.40
196.96
212.98
231.47
248.34
261.33
270.81
279.24
289.30
302.34
317.41
331.58
341.44
344.43
339.64
327.44
308.68
283.48
251.01
210.05
159.80
100.89
35.60
-32.37
-98.62
-158.67
-208.67
-245.82
-268.48
-276.64
-271.73
-256.63
-235.38
-212.50
-192.26
-177.92
-171.32
-172.48
-179.80
-189.79
-197.68
-197.91
-185.54
-157.80
-115.15
-61.41
-2.53
55.29
107.99
154.11
194.14
228.69
256.96
276.49
284.23
278.50
259.78
230.97
196.15
159.26
123.49
91.03
63.52
42.17
27.71
19.86
17.25
17.52
18.02
16.64
12.34
5.27
-3.66
-12.92
-21.01
-26.64
-29.02
-27.96
-23.82
-17.50
-10.10
-2.94
2.95
6.97
9.20
10.38
11.63
13.95
17.80
22.91
28.31
32.88
35.71
36.50
35.51
33.37
30.70
27.78
24.59
20.90
16.65
12.03
7.67
4.42
3.01
3.64
5.65
7.63
7.57
3.40
-6.52
-22.89
-45.17
-71.63
-99.55
-125.68
-146.74
-160.11
-164.17
-158.76
-145.18
-125.91
-104.21
-83.38
-65.97
-53.16
-44.65
-38.85
-33.72
-27.57
-19.72
-10.82
-2.44
3.56
5.83
3.97
-1.24
-8.34
-15.54
-21.28
-24.52
-24.85
-22.43
-17.93
-12.11
-5.45
2.35
12.57
27.45
49.60
80.86
121.13
167.43
214.31
254.87
282.66
293.32
285.73
261.87
225.97
183.15
137.91
93.57
52.06
14.34
-19.01
-47.49
-70.51
-87.69
-99.15
-105.86
-109.42
-111.76
-114.53
-118.59
-123.94
-129.75
-134.76
-137.61
-137.28
-133.16
-125.11
-113.39
-98.46
-81.06
-62.02
-42.32
-22.92
-4.80
11.25
24.64
35.08
42.47
46.88
48.47
47.60
44.70
40.24
34.80
29.06
24.06
20.98
21.01
24.83
32.19
41.76
51.31
58.44
61.26
59.13
52.71
43.66
33.99
25.34
18.62
14.04
11.38
10.29
10.49
11.87
14.25
17.28
20.34
22.78
24.08
23.97
22.52
20.02
16.81
13.24
9.40
5.28
1.01
-3.16
-6.76
-9.29
-10.42
-10.09
-8.50
-6.05
-3.15
-0.05
3.13
6.38
9.60
12.57
14.95
16.47
16.92
16.30
14.77
12.57
10.06
7.49
5.11
3.10
1.60
0.61
0.11
-0.10
-0.41
-1.05
-2.28
-4.12
-6.37
-8.68
-10.69
-12.10
-12.83
-13.10
-13.03
-12.87
-12.67
-12.40
-11.99
-11.42
-10.70
-9.95
-9.33
-8.89
-8.71
-8.81
-9.16
-9.73
-10.40
-10.94
-11.08
-10.62
-9.48
-7.81
-5.90
-3.97
-2.25
-0.81
0.40
1.41
2.17
2.61
2.56
2.07
1.32
0.40
-0.49
-1.27
-1.92
-2.53
-3.14
-3.86
-4.64
-5.41
-6.11
-6.66
-7.04
-7.33
-7.62
-7.97
-8.43
-8.93
-9.34
-9.49
-9.24
-8.52
-7.33
-5.81
-4.02
-2.22
-0.67
0.45
1.01
1.12
1.00
0.98
1.31
2.19
3.48
4.81
5.74
5.90
5.21
3.78
1.92
-0.01
-1.67
-2.88
-3.56
-3.75
-3.58
-3.18
-2.68
-2.15
-1.61
-1.01
-0.36
0.29
0.84
0.96
0.62
-0.28
-1.63
-3.25
-4.95
-6.55
-7.92
-8.90
-9.59
-9.88
-9.82
-9.38
-8.63
-7.66
-6.60
-5.61
-4.77
-4.20
-3.88
-3.91
-4.28
-5.01
-5.99
-6.95
-7.56
-7.44
-6.37
-4.28
-1.48
1.62
4.61
7.09
8.99
10.27
11.02
11.21
10.89
10.00
8.57
6.79
4.72
2.59
0.55
-1.32
-3.04
-4.58
-6.00
-7.36
-8.69
-10.14
-11.78
-13.67
-15.80
-18.09
-20.30
-22.05
-22.93
-22.47
-20.36
-16.34
-10.47
-3.05
5.26
13.68
21.32
27.54
32.03
34.64
35.56
34.84
32.47
28.43
22.81
15.98
8.65
1.71
-4.15
-8.56
-11.58
-13.55
-14.82
-15.41
-15.15
-13.61
-10.33
-5.13
1.79
9.81
17.98
25.09
29.99
31.85
30.39
25.98
19.39
11.63
3.54
-4.35
-11.86
-19.16
-26.44
-33.83
-41.07
-47.51
-52.03
-53.27
-49.99
-41.55
-28.31
-11.86
5.37
20.53
31.02
35.17
32.48
23.53
9.83
-6.57
-23.46
-38.73
-50.48
-57.24
-57.97
-52.21
-40.29
-23.51
-4.03
15.42
32.08
43.77
49.31
48.65
42.64
32.64
20.15
6.58
-6.68
-18.30
-26.87
-31.08
-29.88
-22.95
-10.98
4.24
20.14
33.91
43.21
46.63
43.86
35.60
22.94
7.31
-9.65
-25.83
-38.77
-45.92
-45.41
-36.89
-21.82
-3.47
14.08
27.20
33.61
32.80
25.79
14.44
0.79
-13.29
-26.14
-36.15
-41.71
-41.58
-35.32
-23.60
-8.26
8.15
23.02
34.38
41.21
43.47
41.70
36.71
29.27
20.12
9.95
-0.44
-9.95
-17.47
-21.84
-22.38
-18.87
-11.81
-2.46
7.36
15.61
20.36
20.23
14.71
4.13
-10.27
-26.67
-42.96
-57.12
-67.35
-72.35
-71.28
-63.90
-50.62
-32.64
-11.98
8.60
26.04
37.75
42.18
39.27
30.21
16.89
1.32
-14.71
-29.65
-41.78
-49.21
-50.13
-43.51
-29.85
-11.46
8.05
24.69
35.19
37.88
32.76
21.25
5.74
-10.99
-25.93
-36.26
-39.80
-35.69
-24.82
-9.93
5.04
16.26
21.03
18.79
11.20
1.49
-6.60
-9.92
-6.98
1.72
14.02
26.69
36.59
41.53
40.75
34.96
25.95
15.81
6.48
-0.65
-4.79
-5.79
-3.95
0.03
5.17
10.41
14.68
17.08
17.13
14.82
10.71
5.79
1.10
-2.47
-4.47
-4.99
-4.43
-3.31
-2.01
-0.75
0.44
1.51
2.36
2.89
3.03
2.87
2.65
2.66
3.19
4.19
5.41
6.34
6.48
5.53
3.50
0.76
-2.17
-4.72
-6.56
-7.64
-8.25
-8.81
-9.72
-11.12
-12.89
-14.70
-16.07
-16.72
-16.48
-15.49
-14.10
-12.70
-11.62
-11.17
-11.51
-12.57
-13.96
-14.82
-13.95
-10.19
-2.78
8.09
21.37
35.31
48.04
58.07
64.56
67.34
66.62
62.92
56.77
48.85
40.04
31.26
23.32
16.81
11.90
8.39
5.90
3.98
2.25
0.59
-1.06
-2.54
-3.70
-4.43
-4.62
-4.29
-3.45
-2.20
-0.62
1.10
2.79
4.24
5.19
5.47
4.99
3.73
1.80
-0.59
-3.22
-5.96
-8.65
-11.44
-14.63
-18.80
-24.54
-32.22
-41.65
-52.05
-62.17
-70.72
-76.86
-80.34
-81.55
-81.00
-78.90
-75.03
-68.66
-59.10
-46.11
-30.27
-12.82
4.60
20.47
33.66
43.55
50.05
53.32
53.72
51.65
47.60
42.16
36.03
29.95
24.58
20.31
17.20
15.03
13.42
12.04
10.76
9.70
9.12
9.09
9.46
9.81
9.60
8.46
6.30
3.34
0.05
-3.08
-5.70
-7.56
-8.55
-8.60
-7.84
-6.55
-5.05
-3.69
-2.62
-1.90
-1.36
-0.79
-0.06
0.84
1.76
2.52
2.93
2.95
2.63
2.11
1.57
1.05
0.55
-0.03
-0.74
-1.52
-2.06
-2.02
-1.18
0.35
2.11
3.49
3.95
3.34
1.91
0.32
-0.81
-1.02
-0.37
0.75
1.92
2.81
3.50
4.32
5.77
8.23
11.90
16.69
22.32
28.58
35.01
40.82
45.02
46.55
44.76
39.73
32.32
23.55
14.10
3.73
-8.52
-23.44
-40.73
-58.46
-73.62
-83.26
-85.80
-81.53
-72.49
-61.27
-49.86
-39.01
-28.31
-17.03
-4.79
7.90
19.85
29.75
36.90
41.73
45.37
49.40
54.81
61.77
69.31
75.71
79.27
79.20
76.19
71.97
68.81
68.50
71.80
78.04
85.37
91.52
94.92
95.36
93.69
91.38
89.66
89.12
88.98
86.53
77.50
57.04
21.36
-30.96
-98.24
-175.88
-254.52
-321.15
-363.10
-373.12
-352.61
-309.73
-254.68
-195.82
-138.50
-85.77
-39.80
-2.70
24.02
40.19
47.63
49.58
49.66
50.64
53.72
58.69
64.06
68.05
69.60
69.14
68.25
69.21
73.99
83.54
97.94
115.98
135.73
155.19
173.25
188.39
199.12
203.84
200.80
188.63
166.28
133.79
92.78
46.36
-1.26
-45.18
-80.73
-104.20
-113.43
-108.37
-90.59
-62.82
-28.70
7.81
43.08
74.32
99.78
118.99
132.01
139.97
144.75
148.18
151.72
156.17
161.40
166.17
171.97
178.24
184.01
188.32
190.40
189.83
186.73
181.46
174.61
166.92
158.51
149.40
139.57
128.93
117.33
104.81
91.54
77.96
64.72
52.33
41.41
32.57
26.23
22.54
21.27
21.97
23.91
26.26
28.10
28.75
27.89
25.49
21.78
17.09
11.94
6.76
1.90
-2.52
-6.51
-10.17
-13.79
-17.79
-22.63
-28.72
-36.26
-45.19
-55.13
-65.41
-75.24
-83.75
-90.44
-95.23
-98.42
-100.53
-102.19
-103.96
-106.34
-109.69
-114.35
-120.78
-129.46
-140.61
-153.88
-168.15
-181.62
-192.19
-198.10
-198.58
-194.53
-188.34
-183.46
-183.41
-190.93
-207.40
-232.82
-266.13
-305.64
-349.60
-396.03
-442.80
-487.84
-529.60
-567.32
-600.71
-629.09
-650.10
-659.46
-651.90
-623.59
-574.43
-509.20
-436.58
-366.49
-307.10
-263.08
-234.79
-219.32
-212.06
-207.90
-202.12
-190.89
-172.04
-145.49
-114.13
-81.79
-51.89
-26.21
-4.32
16.37
39.68
69.40
107.64
152.01
196.66
233.08
252.20
247.66
219.53
175.82
130.72
99.54
90.11
101.83
125.65
147.47
153.52
135.15
91.36
28.42
-42.78
-112.83
-171.83
-210.88
-223.98
-209.42
-170.60
-114.78
-51.31
29.39
123.90
220.18
302.25
357.91
383.63
383.39
364.59
334.65
298.94
257.19
209.40
155.07
97.13
41.36
-5.63
-38.24
-52.77
-48.05
-27.62
4.75
49.70
102.88
158.53
210.96
255.77
290.38
313.82
324.83
323.67
312.15
292.70
268.69
243.34
219.15
197.64
179.42
163.49
148.83
134.68
120.38
106.16
92.55
80.10
69.22
59.98
51.87
44.52
37.65
30.77
23.97
17.50
11.68
6.81
3.05
0.36
-1.03
-0.98
0.37
3.10
7.27
12.69
19.05
26.92
34.41
40.22
43.34
43.01
39.01
31.55
21.23
8.95
-4.41
-18.04
-31.01
-42.60
-52.31
-59.78
-64.87
-67.67
-68.32
-67.44
-65.75
-63.89
-62.41
-61.52
-61.05
-60.58
-59.65
-57.54
-54.43
-50.81
-47.57
-45.46
-44.52
-44.07
-43.03
-40.34
-34.71
-26.43
-16.68
-7.57
-0.60
4.32
8.80
15.56
27.64
49.10
77.15
108.55
139.14
165.61
186.63
202.47
214.20
222.95
231.17
239.70
247.98
253.49
252.78
241.81
216.06
172.01
99.59
3.77
-96.34
-177.09
-224.57
-238.85
-229.04
-206.46
-179.68
-152.57
-124.56
-95.54
-67.67
-45.10
-31.22
-26.77
-30.00
-37.89
-46.82
-53.15
-55.63
-55.51
-55.18
-56.09
-57.62
-57.55
-53.14
-42.12
-22.99
3.22
33.92
64.97
92.39
113.43
126.61
131.63
128.85
119.31
104.16
83.35
58.59
31.76
5.23
-18.92
-38.94
-53.88
-63.45
-68.10
-69.32
-69.39
-70.58
-73.97
-79.78
-87.13
-94.48
-101.51
-105.14
-103.78
-96.89
-85.19
-69.65
-51.65
-32.50
-13.48
4.18
19.41
30.43
36.58
35.73
27.44
12.95
-5.08
-23.23
-38.55
-48.77
-53.68
-54.46
-53.35
-52.46
-53.29
-56.72
-62.58
-69.35
-73.59
-71.08
-57.98
-33.24
0.55
37.62
70.82
94.58
106.78
109.03
104.78
97.61
90.05
83.24
77.33
71.16
62.06
46.35
20.75
-15.80
-60.80
-107.96
-151.14
-184.54
-205.40
-213.65
-209.39
-191.52
-159.11
-114.19
-63.95
-19.67
8.44
16.76
11.01
3.93
8.15
28.82
60.54
90.78
106.95
103.61
83.65
54.97
25.13
-2.33
-27.35
-49.72
-66.54
-73.13
-65.84
-45.75
-19.51
3.69
16.74
17.44
9.25
-1.60
-10.25
-15.02
-16.94
-17.96
-18.94
-19.32
-17.92
-13.86
-6.74
3.01
14.36
26.46
38.09
47.78
53.65
54.13
48.49
37.91
24.65
11.37
0.53
-6.43
-9.04
-7.58
-1.95
5.97
16.81
31.90
52.59
79.89
114.51
156.56
204.75
255.07
300.64
333.53
347.15
339.37
314.50
281.54
250.25
226.78
210.60
196.17
177.32
150.39
114.75
71.83
22.69
-32.53
-93.84
-159.78
-225.34
-281.69
-319.25
-332.54
-321.85
-292.95
-253.79
-213.02
-177.81
-151.66
-132.92
-114.75
-89.78
-52.50
-1.76
59.58
124.18
179.80
213.65
218.97
199.77
165.29
129.79
96.76
65.86
34.86
0.38
-40.71
-90.03
-146.85
-211.57
-282.34
-353.87
-407.93
-425.35
-395.44
-321.71
-229.70
-131.73
-35.61
52.85
128.49
184.95
216.65
221.46
199.52
159.03
115.98
82.66
62.48
49.65
34.83
10.50
-25.10
-68.26
-112.70
-150.56
-178.31
-195.61
-203.28
-200.84
-186.78
-159.69
-113.65
-49.50
28.28
110.77
187.69
249.48
288.60
300.19
282.99
240.98
182.65
120.51
65.85
25.53
0.87
-11.00
-14.57
-13.55
-9.33
-2.94
4.51
11.06
14.40
13.38
8.97
4.04
2.18
6.76
18.54
35.91
56.17
76.42
94.70
110.57
125.02
138.88
152.75
164.97
172.17
170.67
157.63
132.21
96.20
53.06
8.51
-28.88
-52.29
-58.09
-45.50
-16.83
22.64
65.16
101.20
124.63
138.10
146.13
152.03
158.43
165.71
171.97
173.46
163.98
140.44
109.11
73.85
32.92
-17.34
-81.94
-158.07
-242.96
-336.34
-435.88
-529.81
-610.60
-677.55
-730.39
-768.45
-789.81
-762.81
-671.24
-564.80
-463.97
-360.42
-257.73
-162.28
-81.10
-20.32
14.78
17.48
-9.96
-54.66
-102.42
-141.92
-163.51
-163.55
-145.56
-125.05
-111.42
-109.77
-115.14
-122.48
-130.40
-138.13
-144.41
-149.55
-153.93
-158.08
-162.02
-161.52
-154.22
-141.43
-124.97
-106.59
-87.29
-66.93
-44.75
-20.51
7.34
39.13
73.12
107.30
139.77
169.08
194.39
215.35
231.16
241.44
245.93
244.46
237.73
227.23
214.84
202.41
191.52
182.66
175.56
170.06
166.45
165.66
168.85
176.51
187.98
201.35
213.89
222.91
227.09
226.90
224.46
222.69
224.37
231.57
245.22
264.59
286.64
306.06
316.02
309.95
284.20
239.37
180.38
114.55
48.63
-13.64
-72.34
-130.00
-188.82
-247.93
-302.58
-345.45
-369.83
-372.79
-356.44
-327.19
-292.94
-259.92
-230.61
-204.19
-178.37
-151.64
-124.31
-97.71
-72.56
-47.52
-19.44
15.16
57.74
106.47
156.71
202.16
237.58
260.48
271.79
275.34
276.56
281.07
293.20
314.78
344.14
376.17
403.45
418.88
418.40
402.76
377.20
349.00
324.19
305.24
290.83
277.52
262.22
243.79
222.89
200.84
178.13
153.91
126.58
94.76
57.63
14.81
-33.84
-87.77
-144.87
-200.38
-247.09
-277.01
-284.13
-266.33
-225.81
-167.94
-99.66
-28.72
36.57
87.44
115.97
117.21
91.56
44.72
-14.56
-78.24
-141.34
-202.03
-259.06
-309.06
-346.37
-364.95
-361.53
-337.53
-298.57
-252.20
-205.89
-166.47
-140.58
-134.51
-152.36
-193.14
-248.77
-304.91
-345.49
-358.70
-341.37
-299.49
-244.84
-189.95
-143.72
-109.79
-87.27
-72.82
-62.51
-52.69
-40.29
-23.08
0.25
29.58
63.48
99.86
136.79
173.15
208.86
244.58
281.31
320.16
361.70
405.01
446.74
481.08
501.70
505.08
493.51
475.74
463.82
467.32
488.27
519.40
547.50
559.73
549.49
518.66
475.27
428.43
383.94
342.93
303.68
264.67
226.74
192.81
166.39
149.44
141.40
139.72
141.35
144.27
148.10
153.84
162.65
174.52
187.69
198.70
203.57
198.89
183.04
156.48
121.32
80.45
36.52
-8.68
-54.22
-99.49
-143.78
-185.68
-223.19
-253.95
-275.78
-287.06
-287.15
-276.32
-255.38
-225.41
-187.65
-143.48
-94.71
-43.64
6.92
53.72
93.56
123.79
142.85
150.47
147.82
137.12
121.27
103.15
85.20
69.14
55.86
45.59
38.16
33.25
30.27
28.40
26.35
22.51
15.14
2.93
-14.64
-36.84
-61.86
-87.42
-111.58
-133.46
-153.44
-172.84
-193.11
-214.84
-237.12
-257.83
-274.21
-284.03
-286.50
-282.58
-274.83
-266.95
-263.13
-267.00
-280.42
-301.91
-325.84
-342.88
-342.43
-316.26
-262.25
-186.35
-101.33
-22.84
35.72
67.20
71.68
54.52
22.93
-16.75
-59.71
-101.88
-138.78
-165.87
-180.20
-182.60
-178.36
-175.92
-183.27
-204.56
-238.24
-278.11
-316.42
-346.93
-367.24
-378.75
-385.31
-391.29
-400.46
-415.67
-438.68
-469.73
-506.67
-544.65
-576.62
-595.36
-596.00
-578.02
-545.34
-504.52
-462.02
-422.00
-385.81
-353.21
-324.00
-298.88
-279.13
-265.22
-255.96
-248.60
-240.30
-229.79
-218.18
-208.32
-203.38
-204.63
-210.25
-215.16
-212.32
-194.37
-155.73
-94.44
-13.45
79.15
170.90
247.64
297.07
312.71
296.49
258.42
213.31
175.41
153.75
149.76
158.47
171.95
183.13
188.12
186.19
178.16
164.67
145.65
121.09
91.94
60.65
30.76
5.50
-13.42
-26.66
-36.60
-46.23
-57.46
-70.42
-83.66
-94.88
-102.14
-104.63
-103.17
-99.63
-96.19
-93.70
-91.95
-89.94
-86.40
-80.33
-71.26
-59.79
-46.84
-33.60
-18.84
-1.13
20.28
45.28
73.20
103.40
134.56
165.90
196.52
229.85
268.42
312.24
358.84
404.62
446.57
481.57
508.85
528.02
545.96
568.18
596.38
628.93
663.70
701.16
742.85
792.96
852.34
924.88
1006.18
1082.94
1138.08
1158.34
1140.57
1089.82
1020.48
894.13
699.27
456.29
210.99
6.49
-138.67
-216.39
-252.27
-267.10
-275.39
-277.64
-273.45
-270.64
-276.71
-297.90
-336.04
-391.27
-458.66
-533.17
-602.79
-657.00
-689.09
-695.13
-674.26
-628.13
-563.70
-489.02
-414.06
-342.97
-277.06
-216.71
-160.72
-108.59
-61.13
-21.92
7.10
26.19
41.87
65.82
104.95
158.55
213.85
251.09
251.65
209.06
131.30
38.49
-51.30
-128.71
-190.39
-238.51
-276.95
-310.14
-338.41
-359.07
-368.31
-354.04
-316.29
-259.71
-191.41
-119.10
-52.73
-0.02
33.81
46.86
33.47
-13.96
-97.71
-212.38
-345.58
-484.42
-614.53
-723.12
-799.33
-842.56
-858.73
-852.75
-826.02
-755.23
-634.37
-478.29
-330.48
-199.93
-83.29
22.93
118.61
203.06
275.26
330.26
365.50
382.63
389.53
390.61
387.89
383.29
378.60
374.93
369.53
360.33
347.26
334.10
321.59
308.73
294.93
280.34
265.37
249.00
231.41
214.25
201.54
194.98
194.54
199.53
208.75
220.23
231.14
239.02
242.32
241.44
237.16
230.81
224.33
219.25
215.85
214.08
212.12
206.82
194.96
174.39
144.98
108.86
69.30
29.30
-6.06
-33.82
-53.69
-66.93
-74.35
-74.93
-66.22
-44.85
-8.30
49.75
131.26
231.71
340.42
443.78
529.76
590.64
624.93
635.22
632.90
625.99
615.85
598.01
567.00
520.93
462.57
398.71
298.53
153.66
-20.90
-193.02
-333.53
-429.27
-480.92
-495.65
-479.18
-441.83
-387.81
-324.20
-261.57
-211.38
-182.36
-175.76
-195.70
-233.33
-273.07
-294.23
-285.98
-251.80
-205.63
-164.64
-139.02
-129.85
-130.67
-134.61
-134.60
-129.09
-121.11
-116.04
-120.17
-137.75
-169.57
-213.01
-263.73
-313.66
-354.62
-379.62
-377.34
-349.03
-301.52
-243.63
-182.44
-122.86
-67.04
-16.81
26.32
61.12
86.09
102.74
114.59
125.84
139.51
157.41
177.25
195.08
206.44
206.66
193.70
168.40
133.86
93.24
52.21
14.58
-17.75
-44.73
-67.86
-88.27
-106.55
-122.82
-136.68
-147.00
-151.98
-148.71
-134.36
-108.19
-72.38
-32.35
5.00
34.03
52.62
61.90
65.51
66.82
67.03
65.45
60.98
53.77
45.58
38.98
35.44
35.02
36.16
36.41
33.01
23.29
5.12
-22.29
-57.05
-93.92
-124.64
-140.48
-135.76
-110.60
-71.45
-28.57
8.11
32.90
45.49
49.85
50.69
50.69
49.93
46.18
37.30
22.84
4.80
-13.85
-30.71
-45.12
-57.74
-69.30
-79.49
-87.08
-91.01
-91.47
-90.07
-88.70
-87.46
-85.29
-79.34
-66.86
-47.19
-22.25
4.60
30.08
52.89
73.06
90.79
106.00
118.00
126.27
131.23
134.52
138.00
142.38
146.62
147.51
141.38
125.16
97.54
59.14
12.68
-37.77
-86.05
-125.52
-150.72
-159.02
-151.90
-134.34
-113.61
-94.42
-79.45
-68.64
-60.25
-52.55
-45.01
-38.16
-32.46
-27.29
-20.39
-9.17
8.48
32.81
61.34
88.62
107.84
113.32
103.08
80.40
52.86
29.55
17.41
18.36
29.45
45.17
60.46
73.10
83.92
95.05
106.88
117.38
122.31
117.29
99.70
69.89
31.31
-9.68
-46.61
-74.04
-89.34
-93.02
-87.76
-78.47
-69.35
-64.16
-65.64
-75.10
-91.47
-110.29
-124.81
-127.89
-115.34
-87.88
-51.61
-15.63
11.19
23.35
20.34
5.41
-15.88
-37.87
-55.30
-63.69
-59.36
-40.37
-7.92
33.29
75.05
108.97
129.22
134.48
127.94
115.28
102.41
91.82
84.46
78.21
69.78
55.88
34.31
5.01
-29.72
-65.36
-97.10
-120.07
-131.13
-128.88
-114.51
-92.24
-68.45
-50.17
-42.54
-47.21
-60.73
-75.92
-84.54
-80.32
-62.08
-33.62
-1.73
27.73
52.70
74.91
98.23
126.22
159.39
193.87
222.61
235.64
228.20
201.05
159.96
112.77
66.35
24.13
-13.91
-48.96
-81.28
-108.42
-127.33
-134.79
-129.80
-113.67
-89.19
-59.64
-28.23
1.83
26.63
41.38
41.76
25.67
-4.92
-44.30
-84.78
-119.45
-144.13
-157.64
-161.39
-157.96
-150.42
-141.85
-135.89
-136.87
-148.93
-173.75
-208.79
-247.12
-279.30
-296.75
-295.03
-275.73
-243.91
-208.57
-178.38
-158.47
-149.55
-149.07
-153.76
-161.18
-170.37
-180.58
-190.73
-198.47
-200.44
-193.45
-175.43
-145.94
-105.96
-57.34
-1.47
60.00
125.22
191.82
256.78
316.70
368.19
408.64
436.73
453.97
462.80
465.87
465.23
461.92
456.14
447.52
435.66
420.43
403.76
387.57
373.36
362.08
354.30
350.81
353.11
363.34
372.84
375.39
366.04
342.43
305.38
258.19
205.22
150.67
97.88
49.21
7.68
-24.51
-46.27
-58.32
-63.97
-69.06
-80.71
-104.76
-143.17
-191.41
-240.73
-281.43
-306.72
-315.11
-310.10
-297.61
-282.77
-268.16
-253.03
-235.96
-216.76
-197.10
-179.84
-167.30
-159.88
-155.93
-152.49
-146.34
-135.71
-121.27
-105.43
-91.50
-82.27
-78.74
-79.49
-81.25
-80.12
-73.08
-59.17
-39.18
-14.80
12.49
41.20
68.87
91.53
104.83
106.44
98.05
85.06
73.50
66.42
61.78
54.09
38.54
15.01
-11.56
-33.47
-45.01
-45.77
-40.23
-34.28
-31.93
-33.08
-34.79
-34.07
-30.01
-23.96
-18.56
-16.03
-16.94
-20.24
-23.66
-25.28
-24.09
-20.49
-15.92
-12.09
-10.20
-10.43
-11.93
-13.33
-13.63
-12.30
-9.63
-6.44
-3.53
-1.22
0.91
3.99
9.44
18.24
30.95
47.30
66.29
86.38
105.92
122.98
135.89
143.32
144.21
138.11
125.11
105.97
81.84
55.09
27.85
2.20
-20.22
-38.36
-51.77
-60.60
-65.70
-67.51
-66.94
-64.93
-62.24
-59.17
-56.07
-53.08
-50.35
-48.07
-46.42
-45.87
-47.11
-50.76
-57.06
-66.03
-77.07
-88.95
-100.19
-108.37
-111.14
-106.66
-93.77
-72.39
-43.68
-9.89
25.87
60.07
89.33
110.82
122.62
124.07
115.87
99.84
78.57
54.90
31.47
10.39
-7.06
-20.43
-30.13
-36.88
-41.83
-46.51
-52.32
-60.42
-72.06
-87.13
-104.95
-124.71
-143.85
-159.42
-168.66
-169.01
-158.52
-136.64
-103.94
-62.23
-13.46
36.84
85.23
127.36
158.95
176.55
177.93
162.29
131.09
87.89
38.29
-10.65
-52.39
-81.69
-95.31
-92.31
-74.51
-45.27
-8.90
30.46
69.35
103.99
131.15
148.07
152.76
144.38
123.52
91.80
51.59
7.08
-37.47
-76.92
-105.60
-118.65
-114.27
-94.89
-67.08
-39.49
-18.90
-8.74
-8.12
-13.66
-21.97
-31.77
-43.56
-58.55
-77.41
-98.67
-119.79
-138.17
-152.94
-163.32
-169.20
-170.51
-166.28
-154.69
-133.76
-102.61
-62.26
-15.83
30.99
72.54
104.61
125.48
136.28
140.27
141.29
142.04
143.52
144.59
143.13
137.56
127.44
114.62
101.84
91.84
86.10
85.08
88.02
93.82
100.62
105.56
104.61
94.23
74.30
49.54
29.29
22.26
33.49
60.96
95.55
125.15
139.89
136.11
115.12
84.15
49.18
13.09
-23.55
-60.92
-97.68
-130.52
-155.36
-168.83
-170.39
-161.74
-146.17
-127.17
-107.23
-87.65
-68.93
-51.47
-35.98
-24.06
-17.32
-16.68
-21.55
-29.53
-37.07
-40.62
-38.01
-29.00
-15.46
-1.11
9.78
13.60
8.41
-5.60
-26.17
-50.03
-73.19
-91.87
-103.25
-105.51
-98.17
-81.98
-59.11
-32.22
-4.23
22.25
45.22
63.36
76.55
85.40
90.96
94.69
98.04
102.09
107.08
113.87
120.42
125.41
127.56
126.14
121.24
113.63
104.55
94.84
84.73
73.85
62.04
49.01
35.03
20.99
8.41
-0.98
-6.26
-7.77
-7.15
-6.24
-6.85
-10.06
-15.95
-23.65
-31.74
-38.47
-42.14
-41.53
-36.49
-28.61
-21.45
-20.06
-28.23
-46.14
-69.83
-92.31
-106.74
-109.21
-99.88
-82.61
-62.65
-44.59
-30.72
-21.24
-14.87
-10.18
-5.94
-0.96
5.83
15.44
28.63
45.74
66.29
89.44
112.44
131.83
144.17
146.99
139.39
122.32
98.06
68.75
38.23
8.61
-18.84
-43.57
-64.88
-81.91
-93.82
-100.48
-103.20
-104.05
-104.82
-105.21
-102.72
-93.36
-74.68
-47.75
-17.30
9.77
27.43
31.98
22.92
1.15
-31.25
-71.56
-115.23
-155.40
-184.03
-193.84
-181.79
-148.41
-101.99
-51.77
-5.31
32.50
61.02
79.97
89.34
89.04
79.46
61.93
38.87
13.68
-8.86
-22.74
-22.56
-4.61
30.38
76.53
123.43
159.25
175.04
166.27
137.44
97.22
55.88
18.68
-11.06
-32.19
-44.46
-47.91
-43.76
-34.85
-25.98
-21.51
-24.03
-32.31
-42.37
-49.58
-50.24
-42.63
-27.41
-6.79
16.45
38.78
56.78
66.94
66.06
52.63
27.51
-6.29
-43.88
-77.38
-99.57
-106.27
-98.32
-81.80
-65.40
-57.01
-60.99
-76.04
-96.30
-115.08
-126.73
-126.92
-117.20
-104.36
-93.94
-90.13
-93.08
-98.41
-98.85
-87.66
-62.48
-27.74
7.75
34.54
46.45
43.48
30.91
15.39
1.55
-9.70
-23.23
-41.27
-63.13
-85.20
-102.51
-110.88
-109.21
-100.00
-88.56
-81.00
-80.81
-88.23
-100.22
-111.63
-117.14
-113.17
-98.43
-73.62
-40.86
-2.50
38.26
77.45
111.28
137.71
157.60
175.12
196.27
225.92
264.87
308.09
345.67
366.62
363.15
334.05
284.97
226.43
169.96
124.38
94.07
79.10
77.66
87.59
107.49
135.00
164.78
187.85
193.42
173.26
125.74
58.01
-16.75
-83.60
-131.26
-155.17
-156.83
-140.99
-112.79
-76.92
-37.31
1.92
37.31
67.36
93.28
118.36
145.93
177.21
209.92
239.41
260.54
269.32
263.54
242.13
204.87
152.23
86.02
9.75
-71.10
-149.54
-218.18
-270.87
-303.94
-315.80
-306.71
-277.97
-233.24
-177.83
-117.77
-58.57
-3.42
46.63
93.67
141.37
192.23
243.44
287.51
314.88
318.11
295.03
248.72
186.44
116.54
45.81
-24.31
-95.47
-169.50
-245.92
-321.84
-393.66
-458.64
-516.21
-552.58
-555.84
-521.86
-458.52
-380.50
-299.91
-223.73
-154.41
-92.78
-39.69
2.42
31.86
49.00
57.42
62.83
69.60
80.40
95.90
115.21
135.58
154.18
170.49
184.43
196.74
206.77
212.78
212.44
204.00
185.97
158.18
121.94
78.40
33.27
-9.06
-45.93
-76.41
-100.83
-120.77
-138.26
-153.91
-165.45
-167.93
-156.57
-129.00
-87.62
-39.57
5.43
38.73
56.18
59.55
54.87
48.43
44.34
43.46
44.30
44.53
43.16
40.47
37.53
35.43
34.05
32.58
30.26
27.60
25.47
25.02
25.43
22.96
12.20
-11.41
-47.60
-90.05
-127.13
-148.57
-147.27
-124.25
-87.86
-48.86
-15.77
7.68
21.56
27.92
27.26
19.50
5.03
-13.26
-28.63
-33.78
-24.16
-0.58
30.97
62.49
87.98
105.11
114.80
119.55
120.75
117.44
107.87
90.74
66.95
40.19
15.64
-2.22
-10.57
-9.28
-0.27
14.20
31.59
49.43
66.30
81.28
93.45
102.66
108.88
112.54
115.12
118.21
123.16
130.56
140.13
150.54
160.21
167.45
170.83
169.71
165.14
157.60
146.51
130.63
108.83
80.43
45.31
4.23
-41.05
-87.95
-134.14
-179.20
-223.62
-267.37
-309.61
-348.75
-382.28
-407.05
-419.90
-418.97
-406.73
-387.73
-366.87
-347.92
-333.77
-326.58
-327.82
-338.73
-343.75
-333.05
-301.89
-251.24
-186.52
-116.08
-49.43
4.50
39.92
51.15
40.41
13.17
-23.45
-61.66
-94.76
-117.09
-124.33
-113.22
-71.99
-0.82
92.32
194.74
292.60
373.06
426.23
446.37
433.02
392.14
332.84
267.20
206.91
159.73
127.60
107.93
96.50
89.96
87.22
86.94
87.65
87.55
84.76
78.30
68.87
59.00
51.93
50.90
56.56
67.86
82.72
98.84
114.14
127.19
138.46
146.96
151.84
151.14
142.95
125.45
98.14
61.80
19.18
-25.72
-68.52
-105.04
-132.74
-150.28
-157.98
-157.41
-150.77
-139.70
-125.62
-109.42
-91.55
-72.63
-53.04
-33.25
-13.98
4.36
22.37
41.43
63.01
88.53
117.99
150.82
185.55
219.73
248.74
267.61
272.31
259.63
227.65
174.36
100.30
8.26
-97.21
-210.86
-326.88
-438.88
-539.84
-621.70
-677.53
-699.03
-679.88
-619.37
-524.51
-409.11
-289.96
-182.10
-85.42
-7.75
44.76
71.98
79.45
73.21
57.04
32.59
0.58
-37.78
-83.21
-134.38
-188.93
-244.37
-297.36
-344.67
-383.13
-409.78
-420.82
-414.79
-390.63
-348.94
-288.56
-210.82
-120.27
-22.51
72.66
156.94
223.76
270.45
297.38
313.38
327.19
343.83
364.42
388.40
416.85
451.39
494.03
545.51
613.23
700.41
803.20
911.45
1013.15
1099.80
1166.92
1213.31
1186.78
1062.89
853.21
600.11
349.29
128.72
-52.45
-196.30
-309.09
-397.78
-460.02
-494.71
-505.00
-499.19
-486.74
-473.86
-464.46
-457.61
-451.18
-436.75
-408.33
-364.63
-310.07
-251.75
-195.05
-143.12
-97.09
-57.70
-21.10
10.07
33.28
45.29
43.48
28.18
1.52
-33.50
-74.41
-117.18
-158.74
-196.65
-230.00
-260.59
-287.91
-309.85
-323.73
-327.06
-317.44
-293.76
-256.01
-202.72
-139.26
-72.22
-7.80
49.16
95.57
130.08
152.73
164.89
168.68
165.54
157.65
147.16
135.72
124.42
113.80
104.08
95.12
87.04
79.13
71.29
63.79
56.84
50.47
44.69
39.28
34.18
29.51
25.20
21.39
18.60
17.21
17.46
19.48
23.07
27.92
33.70
41.32
49.28
56.68
62.69
66.43
67.24
64.58
58.54
49.81
39.44
28.17
16.83
5.82
-5.03
-16.01
-27.15
-37.79
-46.49
-51.47
-51.68
-46.86
-37.84
-26.87
-16.76
-9.64
-6.08
-4.89
-3.72
-0.57
5.85
15.88
27.90
39.47
48.55
54.78
59.65
65.79
75.16
88.91
106.51
124.02
134.89
131.57
108.56
60.09
-13.05
-105.12
-206.14
-300.16
-367.89
-395.35
-381.42
-335.87
-271.71
-199.47
-126.30
-58.83
3.94
60.04
105.76
136.89
151.60
151.10
138.37
113.78
82.96
55.81
41.86
48.02
74.11
114.82
162.54
208.72
247.28
276.89
299.30
314.49
320.55
312.15
286.51
246.27
195.85
139.03
77.83
12.20
-59.92
-138.09
-220.65
-301.11
-355.45
-361.31
-312.80
-225.26
-123.56
-38.47
29.39
84.29
130.45
170.26
204.25
229.49
244.52
251.01
252.62
254.48
257.32
260.43
262.62
260.86
251.95
234.96
212.06
187.02
164.71
146.27
131.12
118.24
105.31
90.03
71.50
50.89
30.44
13.09
-0.65
-11.22
-19.28
-26.09
-32.90
-40.62
-49.56
-60.01
-72.14
-87.41
-107.10
-131.61
-160.53
-192.36
-225.17
-256.88
-286.13
-312.25
-336.09
-359.01
-381.90
-405.02
-427.05
-445.48
-457.09
-458.95
-449.28
-428.10
-397.17
-359.40
-318.58
-277.74
-238.74
-201.33
-163.96
-124.99
-84.47
-45.14
-11.78
10.49
19.28
16.07
5.94
-4.93
-11.76
-12.79
-9.18
-3.31
2.72
8.50
14.82
22.94
33.92
47.85
63.78
79.52
91.82
96.40
89.21
68.08
34.13
-7.17
-47.37
-77.17
-89.88
-83.85
-63.44
-36.93
-12.87
3.18
10.50
11.77
10.73
9.54
8.54
6.84
4.33
2.32
2.66
6.30
12.26
18.49
22.75
24.31
23.76
22.24
20.22
17.20
12.46
6.02
-0.83
-6.29
-9.24
-9.92
-9.99
-11.50
-15.43
-20.93
-25.90
-28.04
-26.03
-20.15
-11.66
-1.95
8.38
19.66
33.06
49.24
67.31
84.80
98.15
104.52
103.01
95.79
86.82
80.56
79.67
84.03
91.11
97.38
100.32
99.40
95.88
91.50
86.98
81.58
73.74
62.64
49.49
37.70
31.23
32.20
39.52
49.22
56.66
59.09
57.18
54.19
53.66
56.90
61.87
64.68
62.26
54.61
44.89
37.87
37.34
44.29
57.11
72.40
87.13
99.66
109.94
119.05
128.23
138.07
147.94
156.38
161.11
159.83
150.42
131.06
100.95
60.98
14.38
-33.47
-75.84
-106.96
-124.14
-128.92
-126.50
-123.12
-123.34
-128.31
-136.05
-143.47
-148.19
-149.89
-149.82
-150.07
-151.60
-153.41
-152.06
-142.38
-119.36
-80.53
-27.85
32.24
90.78
140.28
177.84
206.15
230.97
256.78
282.95
302.93
307.46
288.98
245.81
182.80
108.95
33.67
-36.90
-100.51
-157.68
-209.13
-254.17
-290.17
-314.32
-325.52
-324.92
-316.11
-303.23
-289.62
-277.22
-266.36
-255.96
-243.94
-227.10
-201.28
-162.87
-110.43
-46.65
21.52
84.67
134.46
166.82
182.87
187.81
187.16
184.58
181.02
176.21
171.07
168.31
171.21
181.38
197.37
214.12
225.23
225.28
211.22
182.82
141.70
90.56
32.86
-27.24
-85.43
-137.51
-180.78
-214.88
-240.72
-260.18
-274.83
-285.55
-292.03
-293.37
-288.73
-277.91
-262.25
-243.63
-223.88
-203.15
-179.94
-151.83
-117.45
-77.79
-36.36
1.62
31.07
48.12
51.13
41.05
21.66
-1.63
-23.23
-39.17
-48.90
-55.12
-62.04
-72.78
-87.56
-103.65
-117.25
-126.14
-130.83
-134.87
-143.82
-163.77
-199.91
-254.15
-323.18
-397.57
-463.56
-506.94
-517.61
-492.83
-436.92
-358.80
-267.67
-170.67
-71.81
26.63
122.95
215.11
301.45
381.43
455.23
522.97
582.96
630.98
661.05
667.38
646.68
600.45
535.72
463.85
397.52
346.89
315.74
300.44
291.65
278.91
255.30
220.47
180.11
142.14
112.51
92.45
78.97
67.70
55.87
43.08
30.25
17.46
2.88
-16.68
-43.59
-77.21
-113.39
-146.29
-170.81
-184.87
-189.54
-187.70
-181.93
-173.00
-159.94
-141.54
-118.31
-92.62
-68.14
-48.05
-34.16
-26.47
-24.02
-26.15
-32.84
-44.83
-62.52
-84.69
-108.06
-127.65
-138.13
-136.07
-121.62
-98.83
-74.75
-56.47
-48.68
-51.89
-62.53
-74.84
-83.25
-84.08
-76.02
-60.43
-40.59
-21.55
-8.60
-5.49
-13.01
-28.09
-44.63
-55.59
-55.76
-43.43
-20.65
8.09
37.68
63.52
82.14
91.26
90.22
80.56
66.58
54.34
49.24
53.62
64.90
76.87
82.41
77.36
62.63
43.74
27.83
20.29
22.60
32.31
45.02
56.12
62.64
63.63
59.71
52.40
43.40
34.07
25.43
18.44
14.09
13.20
16.04
21.68
27.71
31.04
29.33
22.30
12.23
3.11
-1.09
1.60
10.64
23.05
34.97
43.11
45.98
43.88
38.24
30.61
21.92
12.28
1.46
-10.33
-21.89
-30.70
-33.79
-28.59
-14.23
7.99
34.25
59.04
76.87
83.94
79.77
67.31
51.75
37.76
27.41
19.64
11.51
0.94
-11.25
-21.89
-27.43
-26.61
-21.62
-17.11
-17.02
-22.31
-29.87
-34.57
-32.15
-22.07
-8.03
3.97
8.62
3.72
-9.25
-25.63
-40.32
-49.23
-50.64
-45.25
-35.81
-25.74
-18.15
-14.70
-14.51
-14.65
-10.98
-0.00
19.90
47.31
78.49
108.79
133.99
151.45
159.78
158.76
148.94
131.78
109.70
85.79
63.20
44.35
30.64
22.18
18.29
17.94
19.64
22.18
24.65
27.18
30.70
36.91
46.78
59.88
74.02
85.88
92.83
93.86
90.27
84.13
77.56
71.66
66.97
64.07
63.82
66.95
72.96
79.89
84.82
85.50
81.58
74.37
66.30
59.16
53.46
48.79
44.23
38.89
31.88
22.13
8.45
-9.37
-29.56
-48.09
-59.26
-57.89
-41.76
-12.72
23.65
59.59
87.51
101.79
99.54
80.98
49.13
8.87
-33.61
-71.85
-100.28
-115.32
-116.11
-105.02
-86.43
-65.49
-46.46
-31.42
-20.28
-11.24
-1.96
9.46
23.40
38.84
53.84
66.27
75.00
80.12
83.24
86.86
93.29
103.21
115.10
125.39
129.45
123.61
106.61
80.35
49.13
17.90
-10.22
-34.69
-56.88
-78.15
-97.93
-113.46
-121.54
-120.97
-113.94
-105.92
-102.95
-109.15
-125.28
-149.41
-179.24
-214.53
-256.82
-307.30
-364.40
-422.46
-473.06
-508.42
-524.03
-520.34
-502.05
-475.36
-445.70
-415.98
-386.55
-356.00
-322.72
-285.23
-242.67
-194.92
-142.84
-88.93
-37.52
6.28
38.55
58.10
67.64
72.61
78.43
87.67
98.62
106.34
105.96
95.85
78.58
59.99
46.25
40.87
43.91
52.37
62.05
68.91
69.99
63.63
49.38
28.18
1.84
-26.80
-54.87
-79.87
-100.20
-115.48
-126.72
-135.95
-145.30
-156.39
-168.77
-179.67
-184.43
-177.95
-156.41
-118.75
-66.84
-4.41
63.91
133.92
201.97
264.59
318.56
360.67
387.82
397.62
388.93
362.51
322.14
274.96
230.09
196.27
178.80
177.21
185.85
196.60
202.61
201.07
193.41
182.59
170.70
157.55
141.53
121.22
96.92
70.50
44.28
20.14
-0.72
-16.77
-25.67
-24.67
-12.19
10.87
41.29
74.67
106.88
135.13
157.30
171.25
174.79
166.94
149.33
126.41
104.78
90.01
83.78
82.19
77.51
61.63
30.17
-15.29
-68.43
-120.70
-164.15
-193.66
-207.49
-205.42
-187.60
-154.35
-106.95
-49.67
10.61
66.27
111.20
140.55
152.86
150.65
139.63
127.39
118.12
113.16
111.01
108.64
99.87
80.21
50.36
16.88
-8.71
-20.32
-15.73
3.98
35.10
67.88
92.09
101.72
97.19
86.34
70.91
50.75
25.54
-5.17
-47.05
-104.99
-179.14
-264.10
-348.90
-432.90
-517.41
-600.60
-637.55
-588.43
-446.06
-244.16
-58.01
103.82
245.10
370.99
489.00
597.52
686.96
747.29
774.58
773.44
757.53
732.24
699.97
661.92
618.01
563.67
494.76
411.38
319.69
231.85
152.35
82.18
20.22
-36.34
-93.19
-155.17
-223.53
-294.61
-360.12
-416.29
-461.68
-496.67
-522.96
-543.67
-562.02
-580.13
-598.73
-617.09
-635.69
-653.12
-665.04
-664.77
-646.82
-610.17
-559.08
-501.12
-443.32
-389.98
-340.90
-293.67
-246.77
-202.02
-163.78
-136.07
-119.44
-110.44
-103.96
-95.89
-85.14
-72.62
-59.28
-44.95
-28.71
-10.37
8.19
23.37
31.80
31.85
24.57
12.84
0.10
-10.61
-17.24
-18.42
-13.69
-3.97
7.89
17.97
22.49
19.42
8.93
-7.40
-27.54
-50.37
-75.53
-103.34
-134.07
-167.50
-202.70
-237.81
-270.21
-297.46
-319.29
-338.28
-359.71
-388.61
-426.32
-468.29
-504.91
-524.87
-520.09
-489.03
-436.39
-370.03
-297.16
-222.11
-146.88
-73.11
-3.55
57.64
106.33
140.70
162.18
175.18
185.46
197.91
214.90
235.85
257.88
277.32
291.46
299.33
301.90
301.31
299.76
298.40
297.11
294.71
289.98
282.87
274.89
268.86
267.96
274.72
290.02
312.93
341.25
372.42
404.59
436.91
469.61
503.37
538.97
577.21
618.29
661.44
703.97
740.77
764.97
770.11
752.89
715.07
663.65
608.04
557.34
517.16
488.91
470.85
460.15
454.38
451.41
448.74
442.28
427.22
399.16
356.09
299.38
233.46
164.40
97.44
35.44
-21.68
-75.98
-129.75
-184.04
-238.17
-290.51
-339.56
-384.28
-423.61
-455.77
-478.49
-490.01
-491.24
-485.95
-479.98
-478.29
-481.94
-487.17
-487.32
-476.83
-454.62
-425.36
-396.26
-372.92
-355.45
-338.93
-316.92
-286.74
-252.03
-221.12
-202.40
-198.67
-205.10
-211.75
-209.09
-192.83
-165.96
-136.11
-111.10
-95.12
-87.44
-84.47
-82.73
-80.70
-79.03
-79.05
-81.32
-85.25
-89.59
-93.27
-96.25
-99.27
-103.06
-108.01
-113.82
-120.11
-126.59
-133.52
-141.55
-151.47
-163.70
-177.85
-193.10
-208.02
-221.06
-230.77
-236.40
-238.33
-238.44
-239.90
-245.70
-257.67
-274.88
-294.04
-310.78
-321.42
-324.59
-321.51
-315.32
-309.26
-305.51
-304.09
-303.47
-301.52
-296.21
-286.35
-271.34
-251.16
-226.38
-198.57
-170.62
-146.55
-130.97
-127.79
-139.43
-165.78
-204.01
-249.23
-295.23
-335.89
-365.43
-379.65
-375.45
-351.40
-307.41
-244.45
-164.91
-72.30
28.78
133.54
236.94
334.91
424.27
502.82
568.96
621.37
658.95
681.00
687.87
681.33
665.15
644.83
626.42
615.15
614.15
623.75
641.78
664.26
687.17
707.53
724.50
739.18
753.99
770.61
788.04
801.79
803.73
784.91
739.00
665.09
568.35
459.07
349.55
251.11
172.01
115.96
81.56
62.67
50.05
33.74
6.59
-33.47
-83.18
-136.17
-186.69
-232.20
-273.50
-312.33
-348.08
-376.31
-389.79
-381.82
-349.73
-296.71
-231.37
-164.63
-106.36
-61.85
-31.05
-10.12
5.78
19.45
30.52
36.11
33.52
22.51
6.23
-9.69
-19.80
-21.33
-15.12
-4.91
4.43
9.11
7.93
2.74
-2.52
-3.34
3.17
16.72
33.80
48.80
56.56
54.42
42.94
25.29
5.62
-12.62
-27.77
-39.91
-50.32
-60.14
-69.39
-76.69
-79.65
-76.02
-65.13
-48.53
-29.56
-12.32
0.25
6.98
8.48
6.06
1.07
-5.51
-12.84
-19.50
-24.20
-26.42
-27.33
-29.60
-35.91
-47.08
-61.07
-73.47
-79.77
-77.70
-68.24
-54.83
-41.37
-30.10
-21.23
-13.89
-7.48
-2.44
0.08
-0.76
-4.85
-11.54
-19.88
-29.20
-38.53
-46.36
-50.25
-48.05
-39.09
-24.72
-8.34
6.23
15.93
19.42
17.01
10.91
4.87
3.61
11.23
29.14
54.40
79.92
96.83
97.90
80.98
49.54
11.24
-25.60
-54.89
-74.45
-85.34
-89.87
-90.04
-86.69
-80.45
-72.66
-65.57
-61.40
-61.00
-62.47
-62.00
-55.56
-41.20
-20.59
1.81
21.08
33.96
39.76
39.98
36.53
31.10
25.13
19.95
17.44
19.48
27.10
39.60
54.30
66.78
71.82
65.44
46.29
16.91
-16.41
-45.28
-61.80
-61.42
-44.36
-15.43
18.58
51.10
77.92
97.24
109.21
114.62
114.21
108.55
98.16
84.03
66.94
47.52
25.51
0.09
-29.33
-61.99
-95.31
-125.53
-149.14
-164.56
-172.29
-174.08
-171.20
-163.39
-149.35
-128.24
-101.77
-74.25
-50.67
-34.12
-24.33
-18.10
-11.51
-2.46
8.46
18.46
24.85
26.83
26.25
26.73
32.17
45.19
66.11
92.82
120.95
145.17
160.43
163.46
153.78
133.44
105.93
74.77
42.41
9.79
-22.78
-54.86
-85.05
-110.48
-127.76
-134.38
-129.77
-115.60
-95.30
-72.46
-49.35
-26.68
-4.01
18.66
39.86
57.02
67.68
70.58
66.11
55.67
40.66
21.74
-0.51
-25.35
-50.85
-74.48
-93.71
-106.88
-113.36
-113.42
-107.91
-97.58
-83.25
-65.18
-43.38
-17.71
11.26
41.60
69.59
90.77
101.82
101.62
91.91
76.13
57.93
39.76
22.70
6.76
-8.19
-21.61
-32.84
-41.29
-46.81
-50.04
-51.84
-53.08
-54.23
-55.36
-56.06
-55.80
-54.03
-50.39
-45.26
-39.64
-35.12
-33.34
-35.39
-41.25
-49.85
-59.21
-67.14
-72.28
-74.34
-74.26
-73.77
-74.65
-77.96
-83.77
-91.06
-98.08
-103.03
-104.50
-102.08
-96.57
-89.80
-84.01
-81.05
-81.64
-85.37
-90.99
-97.13
-102.34
-105.27
-104.66
-99.62
-90.15
-77.33
-63.08
-48.70
-33.80
-15.84
8.43
40.68
79.23
119.28
154.96
182.30
201.58
216.72
232.96
253.80
279.21
305.76
328.73
344.19
350.17
346.61
334.53
315.08
289.75
260.53
230.15
201.23
175.52
153.50
134.32
116.68
99.40
82.13
65.31
50.07
37.71
29.52
25.99
26.35
27.95
26.92
19.46
3.59
-19.55
-45.87
-70.03
-87.84
-97.54
-100.01
-97.34
-91.40
-82.81
-71.25
-56.01
-36.64
-13.45
12.81
41.08
69.95
97.37
121.25
139.76
152.56
160.81
166.17
169.14
167.77
157.90
135.33
98.72
51.39
1.01
-42.81
-72.34
-84.03
-79.05
-61.70
-37.33
-11.00
12.65
28.85
33.04
21.93
-4.68
-43.10
-86.73
-127.97
-161.14
-183.58
-195.27
-196.95
-189.20
-172.13
-146.35
-114.16
-79.44
-46.07
-16.55
8.86
31.50
52.29
70.45
83.90
90.90
92.19
91.44
93.62
101.60
114.03
125.34
128.22
117.45
92.14
55.82
13.89
-29.34
-72.27
-115.48
-159.42
-202.68
-241.63
-272.17
-291.14
-297.60
-292.77
-278.92
-258.50
-234.23
-209.12
-186.16
-168.32
-157.31
-153.31
-155.13
-160.86
-168.10
-174.07
-175.85
-170.28
-155.30
-130.93
-99.71
-65.78
-33.09
-3.96
21.53
44.71
67.24
90.06
112.83
134.13
151.53
162.05
162.71
151.39
128.04
95.10
57.02
18.53
-17.19
-50.23
-83.58
-121.51
-166.93
-218.78
-271.58
-316.97
-347.41
-359.15
-354.21
-338.86
-320.50
-304.10
-290.12
-275.30
-254.97
-226.19
-188.72
-144.55
-96.68
-47.65
0.39
45.40
85.23
118.16
143.13
160.00
169.23
171.31
167.14
158.37
147.84
138.97
134.30
133.79
134.62
132.32
123.39
107.42
87.12
66.74
49.48
36.00
24.55
12.65
-1.41
-17.88
-35.56
-53.09
-69.11
-81.79
-88.58
-86.82
-74.45
-51.88
-22.74
7.36
32.66
49.80
59.15
64.77
71.74
84.27
103.64
128.10
154.17
178.08
197.23
210.42
217.55
218.80
214.49
204.96
191.37
176.10
162.06
151.73
145.85
142.85
139.17
130.89
115.24
92.24
65.15
38.70
17.31
2.72
-6.44
-13.90
-23.53
-37.11
-53.48
-68.54
-77.29
-75.64
-61.94
-37.22
-4.93
29.79
61.08
83.10
91.59
84.93
65.15
37.43
8.76
-14.27
-27.65
-31.06
-27.82
-23.13
-21.87
-26.31
-35.11
-44.12
-48.44
-45.50
-36.46
-26.30
-20.96
-24.04
-34.83
-48.59
-59.44
-63.74
-61.94
-57.74
-55.26
-56.19
-58.67
-59.28
-55.55
-48.39
-41.76
-40.37
-46.80
-59.32
-72.56
-79.77
-76.21
-61.04
-37.61
-11.08
14.14
35.65
53.13
66.55
75.21
77.70
73.31
63.28
51.29
41.97
38.45
40.66
45.22
47.84
45.98
40.52
34.93
32.96
36.26
43.09
49.66
51.87
47.72
38.12
26.14
15.25
7.85
4.35
3.42
2.71
-0.33
-7.70
-20.28
-37.56
-57.33
-75.94
-89.40
-95.04
-92.87
-85.78
-78.22
-73.72
-73.02
-73.11
-69.11
-56.98
-36.02
-9.33
17.79
40.37
55.70
63.44
64.83
61.13
53.40
42.79
31.23
20.97
13.55
8.45
3.31
-4.77
-17.05
-31.85
-44.93
-51.98
-51.18
-44.34
-35.71
-29.39
-27.16
-27.95
-29.58
-30.33
-30.54
-31.90
-35.80
-41.98
-48.37
-52.19
-51.52
-46.22
-37.60
-27.62
-18.05
-9.96
-3.61
1.29
5.93
12.06
21.85
36.90
57.32
81.80
107.84
132.69
154.11
170.83
182.12
187.41
186.17
177.83
162.45
140.96
114.84
85.86
55.70
25.75
-2.90
-29.01
-51.10
-67.79
-78.30
-82.93
-82.77
-79.02
-72.14
-61.72
-46.83
-27.17
-4.23
18.76
37.92
50.38
55.38
54.46
50.36
45.91
43.10
42.92
45.51
50.61
57.77
66.23
75.00
82.52
86.94
86.33
79.14
65.14
45.72
23.52
1.52
-18.05
-34.78
-49.25
-62.03
-72.88
-80.92
-85.72
-89.25
-95.56
-108.77
-130.45
-157.33
-181.87
-195.55
-192.76
-173.13
-141.95
-107.60
-77.94
-58.16
-49.34
-49.21
-53.72
-58.59
-60.99
-60.44
-58.53
-57.60
-59.38
-63.51
-67.71
-69.37
-67.11
-61.81
-55.91
-51.21
-47.15
-41.30
-30.79
-14.99
3.29
19.09
28.25
29.71
26.73
24.97
29.27
41.14
57.81
73.63
83.01
82.71
72.74
55.97
36.35
17.70
2.68
-7.06
-11.25
-10.50
-6.77
-3.23
-3.68
-11.32
-27.13
-49.36
-73.82
-95.80
-111.45
-119.21
-119.00
-111.80
-98.89
-82.03
-63.42
-46.06
-32.66
-24.48
-20.58
-17.71
-11.76
0.67
21.09
49.26
83.41
120.77
157.39
188.65
209.78
217.59
211.87
195.89
174.80
153.48
134.48
117.36
100.38
82.31
63.49
45.67
30.70
19.26
10.79
4.35
-0.66
-4.26
-6.33
-7.28
-7.91
-8.96
-10.29
-11.12
-10.42
-7.99
-4.66
-1.73
0.01
1.07
2.37
4.50
6.80
7.51
4.79
-1.65
-10.34
-18.55
-23.61
-24.43
-21.68
-17.05
-12.37
-8.61
-5.46
-1.96
2.89
9.39
16.63
22.96
26.87
27.83
26.90
26.62
29.69
37.53
49.42
62.47
72.97
78.07
76.81
70.05
59.68
47.40
34.16
20.52
6.88
-5.84
-16.38
-23.73
-27.78
-29.52
-30.56
-32.30
-34.90
-37.65
-39.44
-39.74
-39.20
-39.08
-40.57
-43.69
-47.22
-49.10
-48.07
-44.31
-39.75
-36.92
-37.64
-42.17
-49.11
-56.43
-62.01
-64.61
-63.77
-59.78
-53.73
-47.33
-42.24
-39.42
-38.86
-38.92
-37.30
-31.66
-20.36
-3.24
18.38
41.87
63.86
80.74
89.86
89.98
81.73
67.44
49.81
31.07
12.47
-5.15
-20.78
-32.47
-38.32
-37.54
-31.31
-22.62
-14.61
-8.80
-4.27
1.32
10.19
22.29
35.21
45.53
50.40
49.08
42.86
34.00
24.63
16.23
9.63
5.47
4.51
6.92
12.27
19.09
25.09
28.13
26.94
21.35
12.32
1.79
-8.03
-14.76
-16.68
-13.57
-6.80
1.01
6.87
8.66
5.91
0.07
-6.24
-10.21
-9.86
-4.06
7.45
24.33
45.56
69.35
93.33
115.16
133.23
146.69
155.36
158.48
154.50
141.22
116.99
81.85
38.53
-7.89
-50.93
-84.27
-103.52
-107.16
-97.08
-78.29
-57.91
-43.49
-40.65
-51.44
-74.20
-104.20
-135.73
-163.75
-185.09
-198.57
-204.15
-201.98
-191.83
-173.24
-145.91
-110.59
-69.62
-26.73
13.87
49.12
78.10
101.81
121.99
139.36
152.73
159.20
155.93
141.63
117.08
84.79
47.27
6.52
-36.00
-78.67
-119.09
-154.31
-181.48
-199.19
-207.60
-208.45
-203.83
-195.79
-185.93
-175.29
-164.11
-151.40
-135.21
-113.49
-86.12
-55.50
-26.41
-3.84
9.73
15.38
17.00
18.65
22.36
27.25
31.71
35.82
42.27
55.24
76.36
102.27
125.23
137.44
136.05
125.01
112.39
104.49
101.62
97.77
85.20
60.72
28.94
0.50
-14.52
-12.89
-0.43
11.81
14.03
3.68
-13.34
-26.20
-25.18
-6.29
27.53
68.72
109.52
144.32
170.80
188.80
197.98
196.95
183.85
157.97
121.54
79.78
39.39
5.92
-18.41
-35.69
-50.47
-66.70
-85.22
-102.77
-113.64
-112.77
-98.50
-73.59
-44.41
-18.06
0.17
8.17
6.46
-2.74
-16.78
-32.99
-48.48
-60.73
-67.66
-68.86
-65.90
-61.91
-60.17
-62.91
-70.57
-81.95
-95.43
-109.41
-122.29
-132.08
-136.01
-131.52
-117.94
-97.20
-74.01
-53.93
-40.80
-35.42
-36.01
-39.59
-43.84
-47.78
-51.12
-53.14
-52.54
-48.24
-40.75
-33.07
-28.60
-28.86
-31.42
-30.41
-19.32
5.17
40.81
80.30
114.08
134.98
140.65
133.81
120.22
105.97
95.53
91.15
93.23
101.10
113.26
127.43
140.81
150.47
154.50
152.50
145.89
136.86
126.98
115.66
100.26
77.92
48.09
14.38
-15.67
-33.91
-35.56
-21.79
0.90
24.75
44.95
61.63
78.07
97.09
117.55
134.26
140.85
133.06
111.57
81.47
49.79
22.51
2.70
-9.92
-17.78
-23.48
-28.67
-33.17
-35.28
-33.06
-25.58
-13.75
-0.37
11.43
19.28
21.60
17.56
6.84
-10.01
-30.58
-50.41
-64.25
-67.87
-59.82
-42.21
-18.76
7.00
32.64
56.87
78.09
93.96
102.40
102.87
96.95
87.56
77.16
66.27
54.08
39.71
24.08
10.31
2.49
3.87
15.42
35.21
59.13
82.11
99.57
109.05
111.32
110.44
112.32
121.49
137.92
156.33
168.91
169.42
157.04
136.47
115.15
98.91
90.01
86.78
86.22
85.90
84.46
80.78
72.48
56.75
32.25
1.30
-30.75
-57.54
-75.72
-86.78
-95.85
-108.30
-126.46
-148.69
-170.49
-187.20
-195.52
-194.13
-183.81
-167.12
-148.25
-132.33
-123.15
-120.76
-120.39
-114.33
-96.19
-66.15
-32.03
-6.60
-1.52
-20.81
-59.00
-103.44
-140.41
-160.12
-159.49
-140.41
-107.42
-65.69
-20.69
20.89
51.44
64.71
58.62
36.64
7.00
-21.08
-42.24
-57.19
-71.78
-93.01
-124.12
-162.16
-199.45
-227.53
-241.35
-241.51
-232.85
-221.71
-213.07
-209.19
-211.05
-219.91
-237.86
-266.25
-303.09
-340.92
-367.94
-371.90
-345.11
-287.92
-208.65
-120.23
-36.50
31.30
75.78
93.92
87.42
63.65
35.04
16.03
17.70
42.08
80.21
115.70
132.48
122.68
90.32
48.46
12.42
-7.73
-10.80
-2.98
6.76
11.87
10.61
5.65
1.28
0.64
4.39
11.03
18.83
27.16
36.90
49.35
64.64
80.39
91.90
94.27
85.15
66.96
47.16
36.04
42.66
71.23
118.47
174.32
224.65
255.53
257.27
226.81
168.50
92.54
12.24
-59.66
-114.20
-148.15
-164.19
-169.18
-171.86
-179.89
-197.30
-223.33
-252.35
-275.65
-283.90
-271.13
-236.77
-186.18
-129.08
-75.81
-33.44
-3.58
17.23
33.91
48.11
56.98
54.63
37.24
7.58
-24.56
-46.90
-51.81
-41.54
-27.88
-24.71
-39.13
-65.58
-87.55
-86.54
-51.82
13.50
94.97
175.15
242.59
295.55
339.49
380.85
421.04
455.15
475.04
474.35
451.49
410.04
356.47
298.38
243.60
200.19
176.13
177.24
204.27
250.86
304.79
351.51
379.50
383.66
365.49
330.73
285.97
236.56
186.70
140.43
101.81
73.70
55.67
43.05
28.45
5.34
-27.73
-65.81
-99.29
-119.06
-121.20
-109.28
-92.54
-81.16
-82.16
-96.42
-120.01
-146.64
-170.54
-187.91
-196.68
-195.04
-180.54
-150.66
-104.21
-43.11
27.30
99.37
165.15
217.86
253.18
270.14
271.23
262.13
250.66
244.59
249.05
264.40
286.24
307.37
320.77
322.40
312.09
292.56
267.30
238.80
207.94
174.77
139.70
103.78
68.60
35.65
5.59
-21.84
-47.46
-71.84
-94.63
-114.51
-129.35
-137.33
-137.52
-130.57
-118.64
-104.77
-91.87
-81.93
-76.02
-73.94
-74.90
-77.92
-82.14
-87.15
-92.97
-99.65
-107.15
-115.58
-125.07
-136.01
-149.00
-164.81
-184.25
-208.20
-237.37
-272.07
-311.84
-355.28
-400.09
-443.77
-484.54
-522.35
-558.37
-593.81
-628.26
-659.00
-681.56
-691.42
-686.11
-665.63
-632.33
-589.28
-538.63
-481.86
-419.97
-354.41
-287.16
-220.68
-156.65
-95.62
-37.56
17.39
67.71
110.99
144.89
168.41
181.97
186.79
183.35
170.03
143.05
98.02
32.24
-53.37
-153.01
-256.61
-351.46
-424.59
-465.74
-469.65
-437.85
-378.12
-302.76
-224.84
-154.29
-95.57
-48.16
-8.86
25.67
57.00
85.46
111.44
136.61
163.66
194.76
229.56
264.90
296.55
321.81
341.52
359.96
382.48
411.72
445.43
476.24
494.26
490.83
461.78
408.85
338.89
261.88
188.22
126.85
84.05
63.00
63.28
80.64
107.47
133.68
149.42
148.06
128.75
96.68
61.02
30.90
11.22
1.35
-4.10
-11.47
-24.57
-42.64
-61.45
-76.00
-83.02
-82.76
-77.60
-70.51
-62.84
-53.74
-41.31
-24.11
-2.85
19.82
40.19
55.83
66.63
74.91
83.56
94.02
104.98
112.78
113.72
105.95
90.93
72.86
56.86
46.67
43.31
44.85
47.45
47.09
41.09
28.85
12.06
-5.96
-21.41
-31.52
-35.83
-36.66
-38.14
-44.04
-55.87
-71.72
-87.02
-96.90
-98.28
-91.57
-80.00
-67.97
-59.00
-54.24
-52.71
-52.08
-50.15
-45.44
-37.75
-27.92
-17.62
-8.86
-3.26
-1.52
-3.41
-7.91
-13.69
-19.83
-25.77
-31.14
-35.17
-36.67
-34.43
-28.21
-19.19
-9.61
-1.83
2.62
4.15
4.56
6.09
9.75
14.43
17.09
14.18
3.78
-13.30
-33.40
-51.88
-65.30
-73.41
-78.82
-85.12
-94.70
-107.23
-120.49
-132.22
-141.89
-151.09
-162.33
-177.08
-194.49
-211.73
-225.29
-232.59
-232.86
-227.02
-217.28
-206.30
-196.92
-191.55
-191.29
-194.73
-197.79
-194.61
-179.65
-150.27
-107.96
-58.13
-7.96
35.95
69.51
91.52
102.99
106.28
104.28
100.23
97.16
97.77
103.73
115.33
131.46
150.08
169.28
187.68
205.39
223.89
245.70
273.28
307.10
344.09
377.24
397.48
396.86
372.24
327.13
270.31
212.37
161.41
120.41
87.36
57.55
26.87
-6.08
-39.89
-71.57
-98.28
-118.39
-131.49
-138.19
-139.87
-138.58
-136.63
-136.57
-140.53
-149.36
-162.75
-179.19
-196.54
-212.64
-225.71
-234.46
-238.36
-237.57
-232.62
-224.41
-214.02
-202.59
-191.17
-180.65
-171.71
-164.95
-160.50
-157.95
-156.42
-154.54
-150.78
-143.62
-131.24
-111.71
-83.80
-47.53
-5.01
39.62
81.21
115.06
137.89
148.82
149.02
140.85
127.27
111.20
95.22
81.41
71.41
65.99
65.41
69.43
77.38
88.50
101.76
115.88
129.23
140.21
147.34
149.89
147.90
142.25
134.93
128.82
127.28
133.12
146.91
165.87
183.99
193.54
187.97
164.76
126.90
82.54
42.90
19.13
19.48
47.26
100.52
172.93
255.78
339.68
416.63
481.19
530.77
565.38
586.81
598.10
602.54
602.47
598.04
586.60
563.57
524.67
468.42
397.53
318.46
239.37
167.08
105.48
55.53
16.04
-14.92
-39.19
-58.31
-73.37
-84.97
-93.24
-97.82
-98.47
-95.81
-91.11
-85.61
-79.70
-72.73
-64.04
-54.40
-46.55
-44.68
-52.54
-70.96
-97.18
-125.57
-150.06
-166.84
-175.34
-177.46
-175.82
-172.11
-166.11
-156.85
-144.04
-129.18
-115.83
-108.34
-109.85
-120.48
-137.01
-153.81
-165.45
-168.91
-164.46
-155.06
-144.66
-136.00
-129.90
-125.21
-119.93
-112.52
-102.48
-90.15
-76.26
-61.76
-47.71
-35.75
-27.65
-24.62
-26.45
-31.04
-34.75
-33.96
-26.62
-13.09
4.13
21.67
36.74
48.08
55.41
59.17
59.78
57.59
53.23
47.45
40.47
31.57
18.94
0.69
-23.52
-51.47
-78.77
-100.54
-113.67
-118.17
-116.47
-112.06
-107.17
-101.97
-94.67
-83.46
-67.70
-48.69
-28.49
-8.35
11.65
32.15
53.19
74.29
92.90
105.61
108.83
100.88
82.76
57.46
28.62
-0.61
-25.80
-43.78
-53.13
-54.66
-49.50
-38.03
-19.92
4.08
30.61
56.76
78.08
90.22
90.69
81.67
70.20
64.68
70.36
86.45
111.18
140.94
172.95
206.68
245.18
294.33
359.07
439.72
501.73
514.33
464.10
364.79
245.36
131.24
35.57
-39.75
-98.95
-147.78
-185.15
-207.49
-211.78
-199.24
-175.30
-146.13
-117.52
-93.50
-75.80
-60.00
-40.25
-13.13
18.90
47.83
62.95
54.29
14.81
-55.40
-146.93
-245.82
-338.70
-417.16
-478.63
-524.44
-557.33
-579.38
-591.59
-593.57
-585.84
-570.16
-548.32
-520.36
-483.23
-431.92
-362.12
-273.07
-168.50
-55.85
56.31
161.00
254.00
333.26
397.49
444.96
474.00
483.73
475.30
452.25
419.81
384.00
350.33
323.07
304.22
293.09
286.06
277.91
263.60
239.83
206.21
164.98
119.72
74.21
32.15
-2.66
-26.51
-36.33
-31.62
-15.62
5.04
22.50
30.58
27.07
13.83
-4.87
-23.83
-38.39
-44.91
-41.46
-28.76
-11.36
2.75
4.98
-9.59
-38.53
-72.83
-100.83
-114.45
-112.66
-100.80
-86.46
-74.90
-66.87
-59.91
-51.77
-42.20
-32.81
-25.30
-19.64
-14.23
-7.21
2.53
15.09
30.24
48.23
69.63
93.86
118.28
138.61
149.96
148.69
133.54
105.44
66.94
20.93
-30.24
-84.91
-141.93
-200.51
-260.18
-321.06
-384.59
-453.11
-529.16
-613.75
-704.47
-794.50
-873.86
-932.21
-962.53
-963.66
-939.97
-899.27
-849.05
-793.67
-733.58
-666.68
-590.24
-502.62
-404.03
-295.80
-179.92
-58.47
66.32
191.72
314.24
429.82
534.24
623.82
695.98
749.91
786.87
810.16
823.86
831.30
833.67
829.78
816.89
791.93
753.08
700.41
635.96
563.01
485.71
408.73
337.87
279.43
238.90
218.84
216.98
226.08
235.73
235.83
219.88
187.88
145.26
99.77
56.95
17.54
-22.11
-66.79
-119.42
-180.27
-245.86
-310.79
-369.43
-417.17
-450.17
-465.57
-461.69
-440.13
-407.91
-373.53
-344.08
-323.24
-311.78
-308.75
-312.83
-322.27
-335.33
-351.90
-369.53
-383.94
-390.82
-388.10
-376.14
-357.39
-334.92
-296.12
-238.71
-170.05
-102.27
-43.18
7.20
53.15
94.75
134.36
172.16
206.06
237.43
271.28
314.17
365.67
422.26
477.31
524.81
560.39
581.09
587.33
582.02
568.95
551.80
534.53
519.88
512.52
517.62
538.05
572.97
615.80
654.30
673.94
662.86
612.61
525.02
410.84
285.02
161.25
47.78
-52.60
-140.23
-216.06
-285.96
-353.53
-419.51
-482.38
-540.84
-595.86
-650.54
-709.13
-774.45
-852.83
-943.45
-1036.43
-1115.50
-1165.47
-1178.90
-1157.33
-1108.41
-999.09
-818.63
-583.20
-332.93
-109.95
60.31
172.57
236.57
269.40
289.17
302.23
309.67
310.37
305.37
297.04
288.10
281.72
280.99
288.13
296.96
299.66
290.84
270.47
243.39
217.67
202.09
199.79
212.45
233.86
254.98
268.00
269.54
260.45
243.89
222.78
198.08
168.80
131.01
81.88
23.11
-38.09
-91.17
-126.24
-137.73
-126.29
-97.66
-60.72
